3997.06983,1.16313
3995.00842,1.16311
3992.94702,1.16332
3990.88561,1.16331
3988.82420,1.16312
3986.76279,1.16254
3984.70139,1.16204
3982.63998,1.16249
3980.57857,1.16333
3978.51716,1.16414
3976.45575,1.16514
3974.39435,1.16599
3972.33294,1.16670
3970.27153,1.16771
3968.21012,1.16852
3966.14871,1.16853
3964.08731,1.16843
3962.02590,1.16815
3959.96449,1.16743
3957.90308,1.16740
3955.84168,1.16793
3953.78027,1.16866
3951.71886,1.16998
3949.65745,1.17104
3947.59604,1.17081
3945.53464,1.17042
3943.47323,1.17032
3941.41182,1.16896
3939.35041,1.16710
3937.28900,1.16673
3935.22760,1.16795
3933.16619,1.16926
3931.10478,1.16871
3929.04337,1.16732
3926.98197,1.16785
3924.92056,1.16978
3922.85915,1.17068
3920.79774,1.17148
3918.73633,1.17287
3916.67493,1.17201
3914.61352,1.16845
3912.55211,1.16530
3910.49070,1.16440
3908.42929,1.16574
3906.36789,1.16855
3904.30648,1.17066
3902.24507,1.16968
3900.18366,1.16666
3898.12226,1.16361
3896.06085,1.16244
3893.99944,1.16373
3891.93803,1.16495
3889.87662,1.16415
3887.81522,1.16429
3885.75381,1.16615
3883.69240,1.16778
3881.63099,1.16967
3879.56958,1.16979
3877.50818,1.16794
3875.44677,1.16814
3873.38536,1.16973
3871.32395,1.17066
3869.26255,1.16966
3867.20114,1.16760
3865.13973,1.16700
3863.07832,1.16588
3861.01691,1.16368
3858.95551,1.16355
3856.89410,1.16609
3854.83269,1.16910
3852.77128,1.16726
3850.70987,1.16237
3848.64847,1.16060
3846.58706,1.16089
3844.52565,1.16150
3842.46424,1.16218
3840.40284,1.16349
3838.34143,1.16431
3836.28002,1.16280
3834.21861,1.16082
3832.15720,1.15955
3830.09580,1.15883
3828.03439,1.15888
3825.97298,1.15906
3823.91157,1.15997
3821.85016,1.16206
3819.78876,1.16188
3817.72735,1.15993
3815.66594,1.15813
3813.60453,1.15666
3811.54313,1.15698
3809.48172,1.15859
3807.42031,1.16002
3805.35890,1.16015
3803.29749,1.16006
3801.23609,1.15948
3799.17468,1.15795
3797.11327,1.15681
3795.05186,1.15542
3792.99045,1.15498
3790.92905,1.15589
3788.86764,1.15685
3786.80623,1.15800
3784.74482,1.15938
3782.68342,1.16067
3780.62201,1.16216
3778.56060,1.16300
3776.49919,1.16310
3774.43778,1.16383
3772.37638,1.16484
3770.31497,1.16445
3768.25356,1.16248
3766.19215,1.16102
3764.13074,1.16071
3762.06934,1.16235
3760.00793,1.16568
3757.94652,1.16716
3755.88511,1.16681
3753.82371,1.16791
3751.76230,1.17081
3749.70089,1.17253
3747.63948,1.17287
3745.57807,1.17371
3743.51667,1.17294
3741.45526,1.17103
3739.39385,1.17112
3737.33244,1.17321
3735.27103,1.17351
3733.20963,1.16851
3731.14822,1.16355
3729.08681,1.16319
3727.02540,1.16495
3724.96400,1.16457
3722.90259,1.16162
3720.84118,1.15890
3718.77977,1.15809
3716.71836,1.15915
3714.65696,1.16209
3712.59555,1.16576
3710.53414,1.16586
3708.47273,1.16286
3706.41132,1.16115
3704.34992,1.16138
3702.28851,1.16208
3700.22710,1.16210
3698.16569,1.16255
3696.10429,1.16344
3694.04288,1.16505
3691.98147,1.16888
3689.92006,1.17260
3687.85865,1.17129
3685.79725,1.16831
3683.73584,1.16771
3681.67443,1.16917
3679.61302,1.17211
3677.55161,1.17654
3675.49021,1.17911
3673.42880,1.17732
3671.36739,1.17764
3669.30598,1.17771
3667.24458,1.17393
3665.18317,1.17150
3663.12176,1.17156
3661.06035,1.17253
3658.99894,1.17427
3656.93754,1.17611
3654.87613,1.17655
3652.81472,1.17881
3650.75331,1.18537
3648.69190,1.18851
3646.63050,1.18301
3644.56909,1.17892
3642.50768,1.17867
3640.44627,1.17913
3638.38487,1.17915
3636.32346,1.17994
3634.26205,1.18150
3632.20064,1.18406
3630.13923,1.18844
3628.07783,1.18863
3626.01642,1.18373
3623.95501,1.18221
3621.89360,1.18488
3619.83219,1.18850
3617.77079,1.18877
3615.70938,1.18787
3613.64797,1.18837
3611.58656,1.18881
3609.52516,1.18957
3607.46375,1.18874
3605.40234,1.18575
3603.34093,1.18523
3601.27952,1.18722
3599.21812,1.18834
3597.15671,1.18919
3595.09530,1.19030
3593.03389,1.18951
3590.97248,1.18966
3588.91108,1.19357
3586.84967,1.19513
3584.78826,1.19148
3582.72685,1.18896
3580.66545,1.18867
3578.60404,1.18885
3576.54263,1.18889
3574.48122,1.18867
3572.41981,1.18888
3570.35841,1.19171
3568.29700,1.19725
3566.23559,1.19907
3564.17418,1.19502
3562.11277,1.19174
3560.05137,1.19052
3557.98996,1.18992
3555.92855,1.19068
3553.86714,1.19295
3551.80574,1.19399
3549.74433,1.19342
3547.68292,1.19425
3545.62151,1.19506
3543.56010,1.19367
3541.49870,1.19224
3539.43729,1.19197
3537.37588,1.19220
3535.31447,1.19198
3533.25306,1.19159
3531.19166,1.19265
3529.13025,1.19481
3527.06884,1.19628
3525.00743,1.19683
3522.94603,1.19635
3520.88462,1.19511
3518.82321,1.19446
3516.76180,1.19472
3514.70039,1.19506
3512.63899,1.19507
3510.57758,1.19526
3508.51617,1.19557
3506.45476,1.19603
3504.39335,1.19703
3502.33195,1.19729
3500.27054,1.19664
3498.20913,1.19692
3496.14772,1.19758
3494.08632,1.19691
3492.02491,1.19591
3489.96350,1.19619
3487.90209,1.19702
3485.84068,1.19720
3483.77928,1.19721
3481.71787,1.19760
3479.65646,1.19768
3477.59505,1.19745
3475.53364,1.19737
3473.47224,1.19733
3471.41083,1.19727
3469.34942,1.19742
3467.28801,1.19779
3465.22661,1.19797
3463.16520,1.19809
3461.10379,1.19830
3459.04238,1.19815
3456.98097,1.19784
3454.91957,1.19812
3452.85816,1.19867
3450.79675,1.19912
3448.73534,1.20002
3446.67393,1.20060
3444.61253,1.19989
3442.55112,1.19925
3440.48971,1.19923
3438.42830,1.19932
3436.36690,1.19976
3434.30549,1.20049
3432.24408,1.20073
3430.18267,1.20024
3428.12126,1.20005
3426.05986,1.20035
3423.99845,1.20075
3421.93704,1.20138
3419.87563,1.20157
3417.81422,1.20115
3415.75282,1.20102
3413.69141,1.20138
3411.63000,1.20169
3409.56859,1.20155
3407.50719,1.20123
3405.44578,1.20071
3403.38437,1.20032
3401.32296,1.20053
3399.26155,1.20099
3397.20015,1.20123
3395.13874,1.20145
3393.07733,1.20178
3391.01592,1.20149
3388.95451,1.20103
3386.89311,1.20153
3384.83170,1.20240
3382.77029,1.20230
3380.70888,1.20135
3378.64748,1.20069
3376.58607,1.20075
3374.52466,1.20147
3372.46325,1.20230
3370.40184,1.20259
3368.34044,1.20245
3366.27903,1.20203
3364.21762,1.20181
3362.15621,1.20206
3360.09480,1.20211
3358.03340,1.20197
3355.97199,1.20239
3353.91058,1.20362
3351.84917,1.20476
3349.78777,1.20487
3347.72636,1.20461
3345.66495,1.20477
3343.60354,1.20436
3341.54213,1.20321
3339.48073,1.20317
3337.41932,1.20431
3335.35791,1.20503
3333.29650,1.20517
3331.23509,1.20540
3329.17369,1.20582
3327.11228,1.20627
3325.05087,1.20686
3322.98946,1.20740
3320.92806,1.20720
3318.86665,1.20656
3316.80524,1.20644
3314.74383,1.20667
3312.68242,1.20706
3310.62102,1.20801
3308.55961,1.20897
3306.49820,1.20928
3304.43679,1.20897
3302.37538,1.20816
3300.31398,1.20775
3298.25257,1.20858
3296.19116,1.20953
3294.12975,1.20943
3292.06835,1.20879
3290.00694,1.20843
3287.94553,1.20900
3285.88412,1.20985
3283.82271,1.20972
3281.76131,1.20898
3279.69990,1.20880
3277.63849,1.20954
3275.57708,1.21068
3273.51567,1.21144
3271.45427,1.21151
3269.39286,1.21110
3267.33145,1.21089
3265.27004,1.21129
3263.20864,1.21135
3261.14723,1.21078
3259.08582,1.21090
3257.02441,1.21174
3254.96300,1.21208
3252.90160,1.21173
3250.84019,1.21093
3248.77878,1.20985
3246.71737,1.20891
3244.65596,1.20821
3242.59456,1.20762
3240.53315,1.20712
3238.47174,1.20643
3236.41033,1.20544
3234.34893,1.20487
3232.28752,1.20498
3230.22611,1.20540
3228.16470,1.20611
3226.10329,1.20680
3224.04189,1.20688
3221.98048,1.20688
3219.91907,1.20765
3217.85766,1.20818
3215.79625,1.20770
3213.73485,1.20732
3211.67344,1.20747
3209.61203,1.20734
3207.55062,1.20701
3205.48922,1.20721
3203.42781,1.20747
3201.36640,1.20693
3199.30499,1.20594
3197.24358,1.20503
3195.18218,1.20391
3193.12077,1.20257
3191.05936,1.20162
3188.99795,1.20104
3186.93654,1.20060
3184.87514,1.20063
3182.81373,1.20076
3180.75232,1.20058
3178.69091,1.20078
3176.62951,1.20136
3174.56810,1.20189
3172.50669,1.20271
3170.44528,1.20366
3168.38387,1.20400
3166.32247,1.20389
3164.26106,1.20393
3162.19965,1.20396
3160.13824,1.20401
3158.07683,1.20429
3156.01543,1.20440
3153.95402,1.20413
3151.89261,1.20369
3149.83120,1.20304
3147.76980,1.20235
3145.70839,1.20212
3143.64698,1.20239
3141.58557,1.20270
3139.52416,1.20277
3137.46276,1.20242
3135.40135,1.20202
3133.33994,1.20236
3131.27853,1.20309
3129.21713,1.20355
3127.15572,1.20350
3125.09431,1.20306
3123.03290,1.20250
3120.97149,1.20193
3118.91009,1.20198
3116.84868,1.20302
3114.78727,1.20412
3112.72586,1.20484
3110.66445,1.20552
3108.60305,1.20611
3106.54164,1.20647
3104.48023,1.20716
3102.41882,1.20831
3100.35742,1.20893
3098.29601,1.20813
3096.23460,1.20599
3094.17319,1.20389
3092.11178,1.20281
3090.05038,1.20235
3087.98897,1.20242
3085.92756,1.20314
3083.86615,1.20401
3081.80474,1.20470
3079.74334,1.20557
3077.68193,1.20702
3075.62052,1.20899
3073.55911,1.21088
3071.49771,1.21172
3069.43630,1.21060
3067.37489,1.20741
3065.31348,1.20320
3063.25207,1.19947
3061.19067,1.19692
3059.12926,1.19539
3057.06785,1.19410
3055.00644,1.19271
3052.94503,1.19173
3050.88363,1.19144
3048.82222,1.19195
3046.76081,1.19315
3044.69940,1.19418
3042.63800,1.19450
3040.57659,1.19474
3038.51518,1.19538
3036.45377,1.19635
3034.39236,1.19762
3032.33096,1.19881
3030.26955,1.19956
3028.20814,1.19989
3026.14673,1.19983
3024.08532,1.19924
3022.02392,1.19809
3019.96251,1.19658
3017.90110,1.19487
3015.83969,1.19328
3013.77829,1.19202
3011.71688,1.19102
3009.65547,1.19044
3007.59406,1.19053
3005.53265,1.19162
3003.47125,1.19343
3001.40984,1.19480
2999.34843,1.19524
2997.28702,1.19546
2995.22561,1.19593
2993.16421,1.19629
2991.10280,1.19642
2989.04139,1.19650
2986.97998,1.19643
2984.91858,1.19654
2982.85717,1.19715
2980.79576,1.19772
2978.73435,1.19764
2976.67294,1.19707
2974.61154,1.19671
2972.55013,1.19698
2970.48872,1.19725
2968.42731,1.19679
2966.36590,1.19620
2964.30450,1.19602
2962.24309,1.19588
2960.18168,1.19617
2958.12027,1.19692
2956.05887,1.19703
2953.99746,1.19663
2951.93605,1.19635
2949.87464,1.19626
2947.81323,1.19681
2945.75183,1.19798
2943.69042,1.19880
2941.62901,1.19875
2939.56760,1.19844
2937.50619,1.19866
2935.44479,1.19905
2933.38338,1.19857
2931.32197,1.19715
2929.26056,1.19569
2927.19916,1.19476
2925.13775,1.19417
2923.07634,1.19316
2921.01493,1.19152
2918.95352,1.19021
2916.89212,1.18998
2914.83071,1.19050
2912.76930,1.19114
2910.70789,1.19191
2908.64648,1.19274
2906.58508,1.19302
2904.52367,1.19286
2902.46226,1.19274
2900.40085,1.19288
2898.33945,1.19352
2896.27804,1.19437
2894.21663,1.19480
2892.15522,1.19510
2890.09381,1.19586
2888.03241,1.19665
2885.97100,1.19713
2883.90959,1.19748
2881.84818,1.19721
2879.78677,1.19642
2877.72537,1.19617
2875.66396,1.19686
2873.60255,1.19770
2871.54114,1.19772
2869.47974,1.19735
2867.41833,1.19749
2865.35692,1.19778
2863.29551,1.19764
2861.23410,1.19759
2859.17270,1.19791
2857.11129,1.19774
2855.04988,1.19638
2852.98847,1.19464
2850.92706,1.19358
2848.86566,1.19310
2846.80425,1.19300
2844.74284,1.19346
2842.68143,1.19419
2840.62003,1.19460
2838.55862,1.19494
2836.49721,1.19568
2834.43580,1.19616
2832.37439,1.19606
2830.31299,1.19614
2828.25158,1.19681
2826.19017,1.19743
2824.12876,1.19726
2822.06735,1.19673
2820.00595,1.19636
2817.94454,1.19618
2815.88313,1.19652
2813.82172,1.19719
2811.76032,1.19744
2809.69891,1.19727
2807.63750,1.19704
2805.57609,1.19701
2803.51468,1.19726
2801.45328,1.19747
2799.39187,1.19748
2797.33046,1.19739
2795.26905,1.19741
2793.20764,1.19755
2791.14624,1.19771
2789.08483,1.19799
2787.02342,1.19823
2784.96201,1.19822
2782.90061,1.19838
2780.83920,1.19877
2778.77779,1.19885
2776.71638,1.19868
2774.65497,1.19856
2772.59357,1.19851
2770.53216,1.19853
2768.47075,1.19855
2766.40934,1.19835
2764.34793,1.19802
2762.28653,1.19804
2760.22512,1.19843
2758.16371,1.19874
2756.10230,1.19860
2754.04090,1.19809
2751.97949,1.19790
2749.91808,1.19842
2747.85667,1.19889
2745.79526,1.19881
2743.73386,1.19852
2741.67245,1.19835
2739.61104,1.19842
2737.54963,1.19857
2735.48822,1.19858
2733.42682,1.19886
2731.36541,1.19973
2729.30400,1.20031
2727.24259,1.19992
2725.18119,1.19953
2723.11978,1.19974
2721.05837,1.19969
2718.99696,1.19899
2716.93555,1.19848
2714.87415,1.19881
2712.81274,1.19975
2710.75133,1.20037
2708.68992,1.20018
2706.62851,1.20006
2704.56711,1.20055
2702.50570,1.20110
2700.44429,1.20127
2698.38288,1.20086
2696.32148,1.20020
2694.26007,1.19988
2692.19866,1.20002
2690.13725,1.20030
2688.07584,1.20027
2686.01444,1.19999
2683.95303,1.19999
2681.89162,1.20046
2679.83021,1.20075
2677.76880,1.20041
2675.70740,1.20011
2673.64599,1.20041
2671.58458,1.20080
2669.52317,1.20094
2667.46177,1.20084
2665.40036,1.20043
2663.33895,1.20019
2661.27754,1.20057
2659.21613,1.20112
2657.15473,1.20145
2655.09332,1.20145
2653.03191,1.20127
2650.97050,1.20135
2648.90909,1.20174
2646.84769,1.20175
2644.78628,1.20133
2642.72487,1.20095
2640.66346,1.20078
2638.60206,1.20103
2636.54065,1.20151
2634.47924,1.20142
2632.41783,1.20086
2630.35642,1.20068
2628.29502,1.20089
2626.23361,1.20112
2624.17220,1.20137
2622.11079,1.20177
2620.04938,1.20190
2617.98798,1.20140
2615.92657,1.20079
2613.86516,1.20060
2611.80375,1.20068
2609.74235,1.20064
2607.68094,1.20072
2605.61953,1.20098
2603.55812,1.20099
2601.49671,1.20091
2599.43531,1.20087
2597.37390,1.20081
2595.31249,1.20104
2593.25108,1.20146
2591.18967,1.20135
2589.12827,1.20075
2587.06686,1.20067
2585.00545,1.20113
2582.94404,1.20145
2580.88264,1.20150
2578.82123,1.20139
2576.75982,1.20123
2574.69841,1.20124
2572.63700,1.20128
2570.57560,1.20114
2568.51419,1.20099
2566.45278,1.20100
2564.39137,1.20112
2562.32996,1.20147
2560.26856,1.20188
2558.20715,1.20197
2556.14574,1.20177
2554.08433,1.20153
2552.02293,1.20125
2549.96152,1.20100
2547.90011,1.20116
2545.83870,1.20157
2543.77729,1.20165
2541.71589,1.20146
2539.65448,1.20121
2537.59307,1.20133
2535.53166,1.20180
2533.47025,1.20191
2531.40885,1.20173
2529.34744,1.20165
2527.28603,1.20147
2525.22462,1.20139
2523.16322,1.20186
2521.10181,1.20254
2519.04040,1.20280
2516.97899,1.20281
2514.91758,1.20282
2512.85618,1.20300
2510.79477,1.20340
2508.73336,1.20359
2506.67195,1.20321
2504.61054,1.20274
2502.54914,1.20265
2500.48773,1.20275
2498.42632,1.20289
2496.36491,1.20315
2494.30351,1.20324
2492.24210,1.20310
2490.18069,1.20336
2488.11928,1.20386
2486.05787,1.20374
2483.99647,1.20305
2481.93506,1.20257
2479.87365,1.20264
2477.81224,1.20287
2475.75083,1.20291
2473.68943,1.20257
2471.62802,1.20213
2469.56661,1.20209
2467.50520,1.20237
2465.44380,1.20250
2463.38239,1.20213
2461.32098,1.20122
2459.25957,1.20011
2457.19816,1.19917
2455.13676,1.19857
2453.07535,1.19829
2451.01394,1.19840
2448.95253,1.19912
2446.89112,1.20013
2444.82972,1.20088
2442.76831,1.20109
2440.70690,1.20109
2438.64549,1.20127
2436.58409,1.20153
2434.52268,1.20173
2432.46127,1.20160
2430.39986,1.20143
2428.33845,1.20159
2426.27705,1.20175
2424.21564,1.20194
2422.15423,1.20251
2420.09282,1.20310
2418.03141,1.20337
2415.97001,1.20364
2413.90860,1.20435
2411.84719,1.20531
2409.78578,1.20588
2407.72438,1.20588
2405.66297,1.20557
2403.60156,1.20508
2401.54015,1.20452
2399.47874,1.20424
2397.41734,1.20422
2395.35593,1.20399
2393.29452,1.20325
2391.23311,1.20238
2389.17170,1.20205
2387.11030,1.20229
2385.04889,1.20243
2382.98748,1.20201
2380.92607,1.20115
2378.86467,1.20002
2376.80326,1.19894
2374.74185,1.19852
2372.68044,1.19866
2370.61903,1.19827
2368.55763,1.19718
2366.49622,1.19634
2364.43481,1.19616
2362.37340,1.19582
2360.31199,1.19448
2358.25059,1.19268
2356.18918,1.19218
2354.12777,1.19380
2352.06636,1.19654
2350.00496,1.19938
2347.94355,1.20107
2345.88214,1.20009
2343.82073,1.19748
2341.75932,1.19665
2339.69792,1.19707
2337.63651,1.19640
2335.57510,1.19546
2333.51369,1.19535
2331.45228,1.19555
2329.39088,1.19639
2327.32947,1.19789
2325.26806,1.19901
2323.20665,1.19983
2321.14525,1.20101
2319.08384,1.20246
2317.02243,1.20312
2314.96102,1.20208
2312.89961,1.20001
2310.83821,1.19794
2308.77680,1.19599
2306.71539,1.19443
2304.65398,1.19371
2302.59257,1.19372
2300.53117,1.19379
2298.46976,1.19375
2296.40835,1.19369
2294.34694,1.19330
2292.28554,1.19261
2290.22413,1.19203
2288.16272,1.19188
2286.10131,1.19199
2284.03990,1.19222
2281.97850,1.19291
2279.91709,1.19398
2277.85568,1.19494
2275.79427,1.19545
2273.73286,1.19580
2271.67146,1.19662
2269.61005,1.19727
2267.54864,1.19674
2265.48723,1.19503
2263.42583,1.19259
2261.36442,1.18990
2259.30301,1.18710
2257.24160,1.18407
2255.18019,1.18102
2253.11879,1.17857
2251.05738,1.17719
2248.99597,1.17671
2246.93456,1.17680
2244.87315,1.17720
2242.81175,1.17718
2240.75034,1.17597
2238.68893,1.17409
2236.62752,1.17287
2234.56612,1.17302
2232.50471,1.17430
2230.44330,1.17628
2228.38189,1.17889
2226.32048,1.18199
2224.25908,1.18521
2222.19767,1.18811
2220.13626,1.19003
2218.07485,1.19048
2216.01344,1.18952
2213.95204,1.18770
2211.89063,1.18574
2209.82922,1.18416
2207.76781,1.18317
2205.70641,1.18248
2203.64500,1.18166
2201.58359,1.18052
2199.52218,1.17882
2197.46077,1.17636
2195.39937,1.17305
2193.33796,1.16933
2191.27655,1.16639
2189.21514,1.16497
2187.15373,1.16522
2185.09233,1.16716
2183.03092,1.17033
2180.96951,1.17449
2178.90810,1.17944
2176.84670,1.18431
2174.78529,1.18830
2172.72388,1.19137
2170.66247,1.19332
2168.60106,1.19412
2166.53966,1.19429
2164.47825,1.19376
2162.41684,1.19227
2160.35543,1.19032
2158.29402,1.18870
2156.23262,1.18806
2154.17121,1.18834
2152.10980,1.18882
2150.04839,1.18962
2147.98699,1.19130
2145.92558,1.19318
2143.86417,1.19394
2141.80276,1.19354
2139.74135,1.19297
2137.67995,1.19245
2135.61854,1.19176
2133.55713,1.19085
2131.49572,1.18946
2129.43431,1.18778
2127.37291,1.18629
2125.31150,1.18512
2123.25009,1.18455
2121.18868,1.18469
2119.12728,1.18502
2117.06587,1.18539
2115.00446,1.18599
2112.94305,1.18614
2110.88164,1.18539
2108.82024,1.18413
2106.75883,1.18274
2104.69742,1.18206
2102.63601,1.18223
2100.57461,1.18170
2098.51320,1.17939
2096.45179,1.17520
2094.39038,1.16950
2092.32897,1.16297
2090.26757,1.15634
2088.20616,1.15020
2086.14475,1.14495
2084.08334,1.14105
2082.02193,1.13914
2079.96053,1.13944
2077.89912,1.14146
2075.83771,1.14430
2073.77630,1.14751
2071.71490,1.15160
2069.65349,1.15682
2067.59208,1.16266
2065.53067,1.16846
2063.46926,1.17359
2061.40786,1.17802
2059.34645,1.18215
2057.28504,1.18621
2055.22363,1.18971
2053.16222,1.19079
2051.10082,1.18814
2049.03941,1.18306
2046.97800,1.17774
2044.91659,1.17378
2042.85519,1.17149
2040.79378,1.16967
2038.73237,1.16819
2036.67096,1.16853
2034.60955,1.17099
2032.54815,1.17408
2030.48674,1.17605
2028.42533,1.17616
2026.36392,1.17515
2024.30251,1.17406
2022.24111,1.17289
2020.17970,1.17154
2018.11829,1.16983
2016.05688,1.16685
2013.99548,1.16339
2011.93407,1.16117
2009.87266,1.16036
2007.81125,1.15995
2005.74984,1.15879
2003.68844,1.15694
2001.62703,1.15512
1999.56562,1.15413
1997.50421,1.15503
1995.44280,1.15916
1993.38140,1.16660
1991.31999,1.17434
1989.25858,1.17937
1987.19717,1.18147
1985.13577,1.18160
1983.07436,1.18121
1981.01295,1.18086
1978.95154,1.18091
1976.89013,1.18191
1974.82873,1.18380
1972.76732,1.18658
1970.70591,1.19063
1968.64450,1.19590
1966.58309,1.20093
1964.52169,1.20514
1962.46028,1.21033
1960.39887,1.21684
1958.33746,1.22283
1956.27606,1.22635
1954.21465,1.22677
1952.15324,1.22544
1950.09183,1.22448
1948.03042,1.22503
1945.96902,1.22729
1943.90761,1.23007
1941.84620,1.23013
1939.78479,1.22735
1937.72338,1.22499
1935.66198,1.22333
1933.60057,1.22112
1931.53916,1.21873
1929.47775,1.21757
1927.41635,1.21872
1925.35494,1.22273
1923.29353,1.22801
1921.23212,1.23187
1919.17071,1.23432
1917.10931,1.23368
1915.04790,1.23020
1912.98649,1.22857
1910.92508,1.22959
1908.86367,1.23054
1906.80227,1.23030
1904.74086,1.23021
1902.67945,1.23044
1900.61804,1.23008
1898.55664,1.22996
1896.49523,1.23079
1894.43382,1.23095
1892.37241,1.23052
1890.31100,1.23027
1888.24960,1.22838
1886.18819,1.22678
1884.12678,1.22794
1882.06537,1.23010
1880.00396,1.23189
1877.94256,1.23290
1875.88115,1.23233
1873.81974,1.23106
1871.75833,1.23235
1869.69693,1.23597
1867.63552,1.23541
1865.57411,1.23014
1863.51270,1.22544
1861.45129,1.22182
1859.38989,1.21819
1857.32848,1.21526
1855.26707,1.21469
1853.20566,1.21683
1851.14425,1.22093
1849.08285,1.22687
1847.02144,1.23459
1844.96003,1.24150
1842.89862,1.24163
1840.83722,1.23776
1838.77581,1.23626
1836.71440,1.23641
1834.65299,1.23714
1832.59158,1.24036
1830.53018,1.24511
1828.46877,1.24674
1826.40736,1.24644
1824.34595,1.24563
1822.28454,1.24340
1820.22314,1.24262
1818.16173,1.24400
1816.10032,1.24544
1814.03891,1.24693
1811.97751,1.24910
1809.91610,1.25000
1807.85469,1.24919
1805.79328,1.24884
1803.73187,1.25026
1801.67047,1.25223
1799.60906,1.25212
1797.54765,1.25135
1795.48624,1.25320
1793.42483,1.25710
1791.36343,1.25739
1789.30202,1.25339
1787.24061,1.25178
1785.17920,1.25310
1783.11780,1.25461
1781.05639,1.25562
1778.99498,1.25573
1776.93357,1.25678
1774.87216,1.26098
1772.81076,1.26538
1770.74935,1.26450
1768.68794,1.26162
1766.62653,1.26030
1764.56512,1.26136
1762.50372,1.26445
1760.44231,1.26577
1758.38090,1.26584
1756.31949,1.26620
1754.25809,1.26764
1752.19668,1.27227
1750.13527,1.27663
1748.07386,1.27637
1746.01245,1.27496
1743.95105,1.27510
1741.88964,1.27631
1739.82823,1.27719
1737.76682,1.27830
1735.70541,1.28245
1733.64401,1.28561
1731.58260,1.28307
1729.52119,1.28135
1727.45978,1.28158
1725.39838,1.28354
1723.33697,1.28657
1721.27556,1.29044
1719.21415,1.29692
1717.15274,1.30268
1715.09134,1.30165
1713.02993,1.29935
1710.96852,1.30052
1708.90711,1.30525
1706.84570,1.31188
1704.78430,1.31771
1702.72289,1.32318
1700.66148,1.33100
1698.60007,1.33829
1696.53867,1.34356
1694.47726,1.34790
1692.41585,1.35408
1690.35444,1.36551
1688.29303,1.37906
1686.23163,1.39259
1684.17022,1.40638
1682.10881,1.41087
1680.04740,1.40630
1677.98599,1.38985
1675.92459,1.34178
1673.86318,1.26969
1671.80177,1.21591
1669.74036,1.18505
1667.67896,1.17580
1665.61755,1.18217
1663.55614,1.19427
1661.49473,1.20560
1659.43332,1.21466
1657.37192,1.22501
1655.31051,1.23779
1653.24910,1.25158
1651.18769,1.25837
1649.12628,1.26441
1647.06488,1.27109
1645.00347,1.27247
1642.94206,1.27410
1640.88065,1.27968
1638.81925,1.28778
1636.75784,1.29648
1634.69643,1.30046
1632.63502,1.30138
1630.57361,1.30477
1628.51221,1.30961
1626.45080,1.31417
1624.38939,1.31840
1622.32798,1.32093
1620.26657,1.32063
1618.20517,1.31698
1616.14376,1.30709
1614.08235,1.30066
1612.02094,1.30478
1609.95954,1.31405
1607.89813,1.31856
1605.83672,1.31447
1603.77531,1.31148
1601.71390,1.31700
1599.65250,1.32462
1597.59109,1.32095
1595.52968,1.29953
1593.46827,1.26627
1591.40686,1.23274
1589.34546,1.20915
1587.28405,1.20237
1585.22264,1.21073
1583.16123,1.22625
1581.09983,1.24307
1579.03842,1.26012
1576.97701,1.28074
1574.91560,1.30243
1572.85419,1.31688
1570.79279,1.32927
1568.73138,1.34181
1566.66997,1.35263
1564.60856,1.36594
1562.54715,1.38140
1560.48575,1.39250
1558.42434,1.37586
1556.36293,1.32833
1554.30152,1.27045
1552.24012,1.21776
1550.17871,1.19212
1548.11730,1.19310
1546.05589,1.20879
1543.99448,1.22745
1541.93308,1.23667
1539.87167,1.22611
1537.81026,1.20953
1535.74885,1.20201
1533.68744,1.19771
1531.62604,1.19546
1529.56463,1.19951
1527.50322,1.20965
1525.44181,1.22201
1523.38041,1.23429
1521.31900,1.24858
1519.25759,1.26301
1517.19618,1.27696
1515.13477,1.29051
1513.07337,1.30312
1511.01196,1.31750
1508.95055,1.33344
1506.88914,1.34835
1504.82773,1.35406
1502.76633,1.35326
1500.70492,1.34811
1498.64351,1.33193
1496.58210,1.29812
1494.52070,1.25982
1492.45929,1.22945
1490.39788,1.19995
1488.33647,1.17145
1486.27506,1.14954
1484.21366,1.12768
1482.15225,1.10033
1480.09084,1.07313
1478.02943,1.05682
1475.96802,1.05306
1473.90662,1.05882
1471.84521,1.07055
1469.78380,1.08386
1467.72239,1.10047
1465.66099,1.12456
1463.59958,1.15196
1461.53817,1.17083
1459.47676,1.17385
1457.41535,1.14465
1455.35395,1.10309
1453.29254,1.08543
1451.23113,1.07836
1449.16972,1.06851
1447.10831,1.05232
1445.04691,1.04136
1442.98550,1.04242
1440.92409,1.05126
1438.86268,1.06375
1436.80128,1.07810
1434.73987,1.08940
1432.67846,1.09728
1430.61705,1.10460
1428.55564,1.11068
1426.49424,1.11669
1424.43283,1.12343
1422.37142,1.12925
1420.31001,1.13519
1418.24860,1.14068
1416.18720,1.14337
1414.12579,1.14664
1412.06438,1.15157
1410.00297,1.15649
1407.94157,1.16166
1405.88016,1.16824
1403.81875,1.17583
1401.75734,1.18465
1399.69593,1.19491
1397.63453,1.20177
1395.57312,1.19662
1393.51171,1.17517
1391.45030,1.14905
1389.38889,1.13088
1387.32749,1.12410
1385.26608,1.12621
1383.20467,1.13220
1381.14326,1.13923
1379.08186,1.14359
1377.02045,1.14150
1374.95904,1.13245
1372.89763,1.12253
1370.83622,1.12027
1368.77482,1.12544
1366.71341,1.13349
1364.65200,1.14274
1362.59059,1.15110
1360.52918,1.15514
1358.46778,1.15707
1356.40637,1.15930
1354.34496,1.16173
1352.28355,1.16483
1350.22215,1.16866
1348.16074,1.17232
1346.09933,1.17625
1344.03792,1.18138
1341.97651,1.18832
1339.91511,1.19670
1337.85370,1.20419
1335.79229,1.21016
1333.73088,1.21531
1331.66947,1.21954
1329.60807,1.22439
1327.54666,1.22636
1325.48525,1.21280
1323.42384,1.18457
1321.36244,1.16288
1319.30103,1.15898
1317.23962,1.16502
1315.17821,1.17150
1313.11680,1.17520
1311.05540,1.17603
1308.99399,1.17635
1306.93258,1.17851
1304.87117,1.18244
1302.80976,1.18732
1300.74836,1.19297
1298.68695,1.19908
1296.62554,1.20554
1294.56413,1.21257
1292.50273,1.22038
1290.44132,1.22881
1288.37991,1.23608
1286.31850,1.23662
1284.25709,1.22435
1282.19569,1.20189
1280.13428,1.18095
1278.07287,1.17158
1276.01146,1.17523
1273.95005,1.18734
1271.88865,1.20260
1269.82724,1.21748
1267.76583,1.23020
1265.70442,1.23883
1263.64302,1.24161
1261.58161,1.23844
1259.52020,1.22780
1257.45879,1.20693
1255.39738,1.17842
1253.33598,1.15084
1251.27457,1.12995
1249.21316,1.11512
1247.15175,1.10484
1245.09034,1.09973
1243.02894,1.10036
1240.96753,1.10549
1238.90612,1.11262
1236.84471,1.12015
1234.78331,1.12732
1232.72190,1.13087
1230.66049,1.12725
1228.59908,1.12085
1226.53767,1.12030
1224.47627,1.12714
1222.41486,1.13730
1220.35345,1.14840
1218.29204,1.15976
1216.23063,1.17100
1214.16923,1.18290
1212.10782,1.19650
1210.04641,1.21091
1207.98500,1.21798
1205.92360,1.20046
1203.86219,1.16233
1201.80078,1.13500
1199.73937,1.13095
1197.67796,1.13686
1195.61656,1.14096
1193.55515,1.14124
1191.49374,1.13911
1189.43233,1.13584
1187.37092,1.13325
1185.30952,1.13309
1183.24811,1.13440
1181.18670,1.13567
1179.12529,1.13705
1177.06389,1.13916
1175.00248,1.14250
1172.94107,1.14780
1170.87966,1.15592
1168.81825,1.16704
1166.75685,1.17972
1164.69544,1.18915
1162.63403,1.18447
1160.57262,1.15819
1158.51121,1.12032
1156.44981,1.09261
1154.38840,1.08821
1152.32699,1.10073
1150.26558,1.11670
1148.20418,1.13050
1146.14277,1.14230
1144.08136,1.15221
1142.01995,1.15908
1139.95854,1.16139
1137.89714,1.16041
1135.83573,1.16219
1133.77432,1.17050
1131.71291,1.18222
1129.65150,1.19433
1127.59010,1.20471
1125.52869,1.20177
1123.46728,1.17435
1121.40587,1.13427
1119.34447,1.10237
1117.28306,1.08742
1115.22165,1.08534
1113.16024,1.08661
1111.09883,1.08782
1109.03743,1.09125
1106.97602,1.09626
1104.91461,1.10165
1102.85320,1.10772
1100.79179,1.11379
1098.73039,1.11908
1096.66898,1.12373
1094.60757,1.12822
1092.54616,1.13285
1090.48476,1.13718
1088.42335,1.14085
1086.36194,1.14469
1084.30053,1.14978
1082.23912,1.15590
1080.17772,1.16234
1078.11631,1.16932
1076.05490,1.17716
1073.99349,1.18540
1071.93208,1.19292
1069.87068,1.19930
1067.80927,1.20415
1065.74786,1.19936
1063.68645,1.17342
1061.62505,1.13724
1059.56364,1.11534
1057.50223,1.11323
1055.44082,1.12072
1053.37941,1.13031
1051.31801,1.13910
1049.25660,1.14489
1047.19519,1.14873
1045.13378,1.15532
1043.07238,1.16463
1041.01097,1.16707
1038.94956,1.15678
1036.88815,1.14532
1034.82674,1.14470
1032.76534,1.15196
1030.70393,1.16092
1028.64252,1.17150
1026.58111,1.18556
1024.51970,1.20490
1022.45830,1.23231
1020.39689,1.26185
1018.33548,1.25409
1016.27407,1.17902
1014.21267,1.09201
1012.15126,1.04615
1010.08985,1.03771
1008.02844,1.04531
1005.96703,1.05725
1003.90563,1.06902
1001.84422,1.07893
999.78281,1.08688
997.72140,1.09340
995.65999,1.09908
993.59859,1.10407
991.53718,1.10804
989.47577,1.11114
987.41436,1.11385
985.35296,1.11672
983.29155,1.12015
981.23014,1.12411
979.16873,1.12791
977.10732,1.13041
975.04592,1.13199
972.98451,1.13341
970.92310,1.13445
968.86169,1.13595
966.80028,1.13881
964.73888,1.14261
962.67747,1.14538
960.61606,1.14253
958.55465,1.13507
956.49325,1.13136
954.43184,1.13337
952.37043,1.13720
950.30902,1.14151
948.24761,1.14564
946.18621,1.14912
944.12480,1.15271
942.06339,1.15607
940.00198,1.15836
937.94057,1.16082
935.87917,1.16406
933.81776,1.16591
931.75635,1.16448
929.69494,1.16100
927.63354,1.15803
925.57213,1.15686
923.51072,1.15743
921.44931,1.15881
919.38790,1.16076
917.32650,1.16388
915.26509,1.16895
913.20368,1.17672
911.14227,1.18499
909.08086,1.18471
907.01946,1.17030
904.95805,1.15396
902.89664,1.14942
900.83523,1.15446
898.77383,1.16222
896.71242,1.16929
894.65101,1.16838
892.58960,1.15490
890.52819,1.13957
888.46679,1.13458
886.40538,1.13909
884.34397,1.14604
882.28256,1.15116
880.22115,1.15471
878.15975,1.15806
876.09834,1.16121
874.03693,1.16546
871.97552,1.17290
869.91412,1.17512
867.85271,1.16088
865.79130,1.14240
863.72989,1.13684
861.66848,1.14156
859.60708,1.14785
857.54567,1.15275
855.48426,1.15652
853.42285,1.16040
851.36144,1.16431
849.30004,1.16741
847.23863,1.16957
845.17722,1.17127
843.11581,1.17279
841.05441,1.17371
838.99300,1.17415
836.93159,1.17390
834.87018,1.17195
832.80877,1.16815
830.74737,1.16356
828.68596,1.15876
826.62455,1.15374
824.56314,1.14958
822.50173,1.14622
820.44033,1.14211
818.37892,1.13826
816.31751,1.13660
814.25610,1.13621
812.19470,1.13532
810.13329,1.13438
808.07188,1.13435
806.01047,1.13620
803.94906,1.14048
801.88766,1.14574
799.82625,1.15050
797.76484,1.15394
795.70343,1.15710
793.64202,1.16171
791.58062,1.16692
789.51921,1.17141
787.45780,1.17508
785.39639,1.17808
783.33499,1.18084
781.27358,1.18405
779.21217,1.18767
777.15076,1.19242
775.08935,1.19910
773.02795,1.20687
770.96654,1.21474
768.90513,1.22485
766.84372,1.24188
764.78231,1.26660
762.72091,1.27576
760.65950,1.24454
758.59809,1.21106
756.53668,1.21406
754.47528,1.22692
752.41387,1.21601
750.35246,1.18943
748.29105,1.13177
746.22964,1.04549
744.16824,0.98863
742.10683,0.98181
740.04542,1.00177
737.98401,1.02615
735.92260,1.04603
733.86120,1.06085
731.79979,1.07134
729.73838,1.07778
727.67697,1.08311
725.61557,1.08935
723.55416,1.09539
721.49275,1.10111
719.43134,1.10706
717.36993,1.11299
715.30853,1.11608
713.24712,1.11557
711.18571,1.11827
709.12430,1.12812
707.06289,1.14149
705.00149,1.14773
702.94008,1.13485
700.87867,1.11139
698.81726,1.09714
696.75586,1.09629
694.69445,1.10136
692.63304,1.10741
690.57163,1.11455
688.51022,1.12059
686.44882,1.12107
684.38741,1.11825
682.32600,1.11347
680.26459,1.10544
678.20318,1.10065
676.14178,1.10318
674.08037,1.10886
672.01896,1.11486
669.95755,1.11969
667.89615,1.11861
665.83474,1.11284
663.77333,1.10995
661.71192,1.11128
659.65051,1.11506
657.58911,1.11792
655.52770,1.11981
653.46629,1.12164
651.40488,1.12314
649.34347,1.12479
647.28207,1.12690
645.22066,1.12935
643.15925,1.13131
641.09784,1.13227
639.03644,1.13313
636.97503,1.13413
634.91362,1.13402
632.85221,1.13356
630.79080,1.13466
628.72940,1.13731
626.66799,1.14093
624.60658,1.14541
622.54517,1.15031
620.48376,1.15133
618.42236,1.14270
616.36095,1.12878
614.29954,1.11972
612.23813,1.11754
610.17673,1.11974
608.11532,1.12360
606.05391,1.12599
603.99250,1.12724
601.93109,1.12936
599.86969,1.13227
597.80828,1.13512
595.74687,1.13686
593.68546,1.13746
591.62405,1.13871
589.56265,1.14041
587.50124,1.14152
585.43983,1.14290
583.37842,1.14496
581.31702,1.14663
579.25561,1.14808
577.19420,1.15109
575.13279,1.15514
573.07138,1.15687
571.00998,1.15592
568.94857,1.15620
566.88716,1.16118
564.82575,1.17026
562.76434,1.17223
560.70294,1.15528
558.64153,1.13404
556.58012,1.12859
554.51871,1.13755
552.45731,1.14879
550.39590,1.14891
548.33449,1.13930
546.27308,1.13443
544.21167,1.13719
542.15027,1.14270
540.08886,1.14625
538.02745,1.14701
535.96604,1.15041
533.90463,1.15894
531.84323,1.16696
529.78182,1.16539
527.72041,1.15520
525.65900,1.14763
523.59760,1.14940
521.53619,1.15853
519.47478,1.16569
517.41337,1.16139
515.35196,1.15019
513.29056,1.13129
511.22915,1.10397
509.16774,1.08793
507.10633,1.09216
505.04492,1.10414
502.98352,1.11219
500.92211,1.11391
498.86070,1.11611
496.79929,1.12251
494.73789,1.12780
492.67648,1.12988
490.61507,1.13161
488.55366,1.13432
486.49225,1.13799
484.43085,1.14197
482.36944,1.14485
480.30803,1.14706
478.24662,1.15011
476.18521,1.15522
474.12381,1.16326
472.06240,1.16685
470.00099,1.15831
467.93958,1.14606
465.87818,1.13938
463.81677,1.13931
461.75536,1.14540
459.69395,1.15825
457.63254,1.17493
455.57114,1.18983
453.50973,1.19293
451.44832,1.17438
449.38691,1.15378
447.32550,1.15742
445.26410,1.17804
443.20269,1.17421
441.14128,1.12885
439.07987,1.09162
437.01847,1.08854
434.95706,1.10154
432.89565,1.11158
430.83424,1.11283
428.77283,1.10641
426.71143,1.09980
424.65002,1.09569
422.58861,1.09337
420.52720,1.09909
418.46579,1.11084
416.40439,1.10964
414.34298,1.10062
412.28157,1.09377
410.22016,1.09162
408.15876,1.09147
406.09735,1.08928
404.03594,1.08989
401.97453,1.10081
399.91312,1.11646
