3997.06983,1.16202
3995.00842,1.16181
3992.94702,1.16147
3990.88561,1.16083
3988.82420,1.15993
3986.76279,1.15937
3984.70139,1.15966
3982.63998,1.16016
3980.57857,1.16087
3978.51716,1.16227
3976.45575,1.16347
3974.39435,1.16383
3972.33294,1.16436
3970.27153,1.16557
3968.21012,1.16640
3966.14871,1.16648
3964.08731,1.16677
3962.02590,1.16681
3959.96449,1.16563
3957.90308,1.16479
3955.84168,1.16504
3953.78027,1.16563
3951.71886,1.16682
3949.65745,1.16808
3947.59604,1.16786
3945.53464,1.16709
3943.47323,1.16717
3941.41182,1.16641
3939.35041,1.16492
3937.28900,1.16476
3935.22760,1.16587
3933.16619,1.16702
3931.10478,1.16640
3929.04337,1.16483
3926.98197,1.16570
3924.92056,1.16862
3922.85915,1.17069
3920.79774,1.17174
3918.73633,1.17201
3916.67493,1.16975
3914.61352,1.16551
3912.55211,1.16277
3910.49070,1.16268
3908.42929,1.16386
3906.36789,1.16606
3904.30648,1.16804
3902.24507,1.16764
3900.18366,1.16553
3898.12226,1.16245
3896.06085,1.16100
3893.99944,1.16261
3891.93803,1.16370
3889.87662,1.16225
3887.81522,1.16247
3885.75381,1.16413
3883.69240,1.16428
3881.63099,1.16515
3879.56958,1.16526
3877.50818,1.16406
3875.44677,1.16519
3873.38536,1.16761
3871.32395,1.16946
3869.26255,1.16832
3867.20114,1.16540
3865.13973,1.16496
3863.07832,1.16402
3861.01691,1.16174
3858.95551,1.16152
3856.89410,1.16360
3854.83269,1.16596
3852.77128,1.16262
3850.70987,1.15694
3848.64847,1.15608
3846.58706,1.15797
3844.52565,1.16001
3842.46424,1.16114
3840.40284,1.16187
3838.34143,1.16130
3836.28002,1.15845
3834.21861,1.15654
3832.15720,1.15588
3830.09580,1.15527
3828.03439,1.15579
3825.97298,1.15656
3823.91157,1.15734
3821.85016,1.15883
3819.78876,1.15797
3817.72735,1.15670
3815.66594,1.15597
3813.60453,1.15426
3811.54313,1.15440
3809.48172,1.15662
3807.42031,1.15817
3805.35890,1.15753
3803.29749,1.15756
3801.23609,1.15708
3799.17468,1.15484
3797.11327,1.15369
3795.05186,1.15208
3792.99045,1.15063
3790.92905,1.15119
3788.86764,1.15325
3786.80623,1.15617
3784.74482,1.15845
3782.68342,1.15934
3780.62201,1.16023
3778.56060,1.16057
3776.49919,1.16026
3774.43778,1.16060
3772.37638,1.16146
3770.31497,1.16177
3768.25356,1.16049
3766.19215,1.15878
3764.13074,1.15757
3762.06934,1.15816
3760.00793,1.16059
3757.94652,1.16195
3755.88511,1.16289
3753.82371,1.16618
3751.76230,1.17067
3749.70089,1.17270
3747.63948,1.17363
3745.57807,1.17460
3743.51667,1.17184
3741.45526,1.16835
3739.39385,1.16872
3737.33244,1.17173
3735.27103,1.17179
3733.20963,1.16538
3731.14822,1.15940
3729.08681,1.15851
3727.02540,1.16061
3724.96400,1.16100
3722.90259,1.15784
3720.84118,1.15470
3718.77977,1.15449
3716.71836,1.15656
3714.65696,1.15986
3712.59555,1.16336
3710.53414,1.16300
3708.47273,1.15949
3706.41132,1.15783
3704.34992,1.15891
3702.28851,1.16052
3700.22710,1.16027
3698.16569,1.16046
3696.10429,1.16253
3694.04288,1.16538
3691.98147,1.16844
3689.92006,1.17016
3687.85865,1.16817
3685.79725,1.16540
3683.73584,1.16514
3681.67443,1.16735
3679.61302,1.17054
3677.55161,1.17439
3675.49021,1.17684
3673.42880,1.17542
3671.36739,1.17618
3669.30598,1.17653
3667.24458,1.17264
3665.18317,1.17018
3663.12176,1.16989
3661.06035,1.17014
3658.99894,1.17145
3656.93754,1.17317
3654.87613,1.17356
3652.81472,1.17667
3650.75331,1.18433
3648.69190,1.18667
3646.63050,1.18042
3644.56909,1.17686
3642.50768,1.17675
3640.44627,1.17660
3638.38487,1.17609
3636.32346,1.17725
3634.26205,1.18000
3632.20064,1.18394
3630.13923,1.18887
3628.07783,1.18764
3626.01642,1.18121
3623.95501,1.17936
3621.89360,1.18224
3619.83219,1.18604
3617.77079,1.18640
3615.70938,1.18622
3613.64797,1.18725
3611.58656,1.18704
3609.52516,1.18709
3607.46375,1.18634
3605.40234,1.18369
3603.34093,1.18358
3601.27952,1.18575
3599.21812,1.18649
3597.15671,1.18697
3595.09530,1.18784
3593.03389,1.18690
3590.97248,1.18716
3588.91108,1.19153
3586.84967,1.19348
3584.78826,1.18946
3582.72685,1.18660
3580.66545,1.18698
3578.60404,1.18830
3576.54263,1.18834
3574.48122,1.18698
3572.41981,1.18657
3570.35841,1.18987
3568.29700,1.19579
3566.23559,1.19723
3564.17418,1.19342
3562.11277,1.19069
3560.05137,1.18920
3557.98996,1.18802
3555.92855,1.18838
3553.86714,1.19056
3551.80574,1.19219
3549.74433,1.19282
3547.68292,1.19462
3545.62151,1.19558
3543.56010,1.19354
3541.49870,1.19126
3539.43729,1.19102
3537.37588,1.19155
3535.31447,1.19094
3533.25306,1.19062
3531.19166,1.19188
3529.13025,1.19348
3527.06884,1.19481
3525.00743,1.19596
3522.94603,1.19574
3520.88462,1.19455
3518.82321,1.19399
3516.76180,1.19389
3514.70039,1.19380
3512.63899,1.19416
3510.57758,1.19510
3508.51617,1.19558
3506.45476,1.19632
3504.39335,1.19866
3502.33195,1.19962
3500.27054,1.19834
3498.20913,1.19760
3496.14772,1.19699
3494.08632,1.19596
3492.02491,1.19574
3489.96350,1.19647
3487.90209,1.19697
3485.84068,1.19700
3483.77928,1.19783
3481.71787,1.19922
3479.65646,1.19923
3477.59505,1.19811
3475.53364,1.19750
3473.47224,1.19723
3471.41083,1.19671
3469.34942,1.19638
3467.28801,1.19705
3465.22661,1.19864
3463.16520,1.19975
3461.10379,1.19941
3459.04238,1.19885
3456.98097,1.19914
3454.91957,1.19892
3452.85816,1.19833
3450.79675,1.19912
3448.73534,1.20081
3446.67393,1.20149
3444.61253,1.20068
3442.55112,1.19999
3440.48971,1.20015
3438.42830,1.20065
3436.36690,1.20115
3434.30549,1.20148
3432.24408,1.20167
3430.18267,1.20164
3428.12126,1.20154
3426.05986,1.20119
3423.99845,1.20076
3421.93704,1.20130
3419.87563,1.20195
3417.81422,1.20154
3415.75282,1.20087
3413.69141,1.20008
3411.63000,1.19942
3409.56859,1.19949
3407.50719,1.19996
3405.44578,1.20045
3403.38437,1.20105
3401.32296,1.20168
3399.26155,1.20203
3397.20015,1.20240
3395.13874,1.20281
3393.07733,1.20231
3391.01592,1.20127
3388.95451,1.20126
3386.89311,1.20207
3384.83170,1.20241
3382.77029,1.20212
3380.70888,1.20169
3378.64748,1.20151
3376.58607,1.20185
3374.52466,1.20241
3372.46325,1.20223
3370.40184,1.20151
3368.34044,1.20146
3366.27903,1.20177
3364.21762,1.20179
3362.15621,1.20226
3360.09480,1.20284
3358.03340,1.20295
3355.97199,1.20302
3353.91058,1.20336
3351.84917,1.20386
3349.78777,1.20403
3347.72636,1.20428
3345.66495,1.20493
3343.60354,1.20515
3341.54213,1.20496
3339.48073,1.20500
3337.41932,1.20551
3335.35791,1.20621
3333.29650,1.20672
3331.23509,1.20700
3329.17369,1.20716
3327.11228,1.20731
3325.05087,1.20727
3322.98946,1.20687
3320.92806,1.20659
3318.86665,1.20696
3316.80524,1.20794
3314.74383,1.20884
3312.68242,1.20922
3310.62102,1.20937
3308.55961,1.20935
3306.49820,1.20896
3304.43679,1.20880
3302.37538,1.20926
3300.31398,1.20964
3298.25257,1.20967
3296.19116,1.20965
3294.12975,1.20977
3292.06835,1.20985
3290.00694,1.20971
3287.94553,1.20967
3285.88412,1.20962
3283.82271,1.20927
3281.76131,1.20904
3279.69990,1.20931
3277.63849,1.20994
3275.57708,1.21079
3273.51567,1.21125
3271.45427,1.21096
3269.39286,1.21059
3267.33145,1.21074
3265.27004,1.21145
3263.20864,1.21188
3261.14723,1.21156
3259.08582,1.21106
3257.02441,1.21076
3254.96300,1.21082
3252.90160,1.21117
3250.84019,1.21115
3248.77878,1.21051
3246.71737,1.20962
3244.65596,1.20864
3242.59456,1.20752
3240.53315,1.20670
3238.47174,1.20654
3236.41033,1.20639
3234.34893,1.20593
3232.28752,1.20565
3230.22611,1.20577
3228.16470,1.20623
3226.10329,1.20646
3224.04189,1.20650
3221.98048,1.20741
3219.91907,1.20827
3217.85766,1.20788
3215.79625,1.20755
3213.73485,1.20748
3211.67344,1.20698
3209.61203,1.20653
3207.55062,1.20612
3205.48922,1.20551
3203.42781,1.20522
3201.36640,1.20515
3199.30499,1.20476
3197.24358,1.20391
3195.18218,1.20254
3193.12077,1.20143
3191.05936,1.20128
3188.99795,1.20098
3186.93654,1.20011
3184.87514,1.19997
3182.81373,1.20091
3180.75232,1.20189
3178.69091,1.20235
3176.62951,1.20236
3174.56810,1.20206
3172.50669,1.20203
3170.44528,1.20296
3168.38387,1.20421
3166.32247,1.20485
3164.26106,1.20476
3162.19965,1.20454
3160.13824,1.20462
3158.07683,1.20445
3156.01543,1.20384
3153.95402,1.20371
3151.89261,1.20376
3149.83120,1.20313
3147.76980,1.20258
3145.70839,1.20267
3143.64698,1.20275
3141.58557,1.20260
3139.52416,1.20271
3137.46276,1.20297
3135.40135,1.20293
3133.33994,1.20223
3131.27853,1.20155
3129.21713,1.20185
3127.15572,1.20257
3125.09431,1.20277
3123.03290,1.20251
3120.97149,1.20233
3118.91009,1.20247
3116.84868,1.20305
3114.78727,1.20391
3112.72586,1.20470
3110.66445,1.20529
3108.60305,1.20572
3106.54164,1.20644
3104.48023,1.20797
3102.41882,1.20984
3100.35742,1.21060
3098.29601,1.20934
3096.23460,1.20646
3094.17319,1.20343
3092.11178,1.20177
3090.05038,1.20148
3087.98897,1.20177
3085.92756,1.20259
3083.86615,1.20400
3081.80474,1.20514
3079.74334,1.20589
3077.68193,1.20710
3075.62052,1.20878
3073.55911,1.21025
3071.49771,1.21079
3069.43630,1.20956
3067.37489,1.20653
3065.31348,1.20270
3063.25207,1.19926
3061.19067,1.19704
3059.12926,1.19534
3057.06785,1.19309
3055.00644,1.19116
3052.94503,1.19078
3050.88363,1.19145
3048.82222,1.19202
3046.76081,1.19226
3044.69940,1.19264
3042.63800,1.19335
3040.57659,1.19445
3038.51518,1.19556
3036.45377,1.19630
3034.39236,1.19714
3032.33096,1.19825
3030.26955,1.19923
3028.20814,1.19972
3026.14673,1.19972
3024.08532,1.19953
3022.02392,1.19873
3019.96251,1.19667
3017.90110,1.19419
3015.83969,1.19246
3013.77829,1.19155
3011.71688,1.19105
3009.65547,1.19087
3007.59406,1.19103
3005.53265,1.19166
3003.47125,1.19290
3001.40984,1.19403
2999.34843,1.19454
2997.28702,1.19484
2995.22561,1.19535
2993.16421,1.19606
2991.10280,1.19653
2989.04139,1.19656
2986.97998,1.19673
2984.91858,1.19747
2982.85717,1.19836
2980.79576,1.19886
2978.73435,1.19872
2976.67294,1.19809
2974.61154,1.19756
2972.55013,1.19712
2970.48872,1.19659
2968.42731,1.19648
2966.36590,1.19674
2964.30450,1.19691
2962.24309,1.19675
2960.18168,1.19635
2958.12027,1.19622
2956.05887,1.19637
2953.99746,1.19678
2951.93605,1.19756
2949.87464,1.19827
2947.81323,1.19844
2945.75183,1.19835
2943.69042,1.19844
2941.62901,1.19869
2939.56760,1.19877
2937.50619,1.19856
2935.44479,1.19843
2933.38338,1.19814
2931.32197,1.19725
2929.26056,1.19615
2927.19916,1.19497
2925.13775,1.19367
2923.07634,1.19249
2921.01493,1.19116
2918.95352,1.18939
2916.89212,1.18831
2914.83071,1.18882
2912.76930,1.18997
2910.70789,1.19092
2908.64648,1.19191
2906.58508,1.19301
2904.52367,1.19373
2902.46226,1.19384
2900.40085,1.19379
2898.33945,1.19406
2896.27804,1.19478
2894.21663,1.19518
2892.15522,1.19506
2890.09381,1.19529
2888.03241,1.19562
2885.97100,1.19569
2883.90959,1.19582
2881.84818,1.19598
2879.78677,1.19651
2877.72537,1.19714
2875.66396,1.19696
2873.60255,1.19632
2871.54114,1.19583
2869.47974,1.19595
2867.41833,1.19656
2865.35692,1.19693
2863.29551,1.19747
2861.23410,1.19817
2859.17270,1.19790
2857.11129,1.19660
2855.04988,1.19497
2852.98847,1.19346
2850.92706,1.19226
2848.86566,1.19138
2846.80425,1.19145
2844.74284,1.19246
2842.68143,1.19322
2840.62003,1.19357
2838.55862,1.19392
2836.49721,1.19427
2834.43580,1.19470
2832.37439,1.19525
2830.31299,1.19561
2828.25158,1.19583
2826.19017,1.19640
2824.12876,1.19719
2822.06735,1.19771
2820.00595,1.19782
2817.94454,1.19756
2815.88313,1.19696
2813.82172,1.19642
2811.76032,1.19647
2809.69891,1.19659
2807.63750,1.19649
2805.57609,1.19667
2803.51468,1.19686
2801.45328,1.19696
2799.39187,1.19737
2797.33046,1.19772
2795.26905,1.19752
2793.20764,1.19717
2791.14624,1.19697
2789.08483,1.19670
2787.02342,1.19660
2784.96201,1.19684
2782.90061,1.19720
2780.83920,1.19781
2778.77779,1.19845
2776.71638,1.19871
2774.65497,1.19862
2772.59357,1.19839
2770.53216,1.19828
2768.47075,1.19816
2766.40934,1.19787
2764.34793,1.19794
2762.28653,1.19820
2760.22512,1.19784
2758.16371,1.19741
2756.10230,1.19766
2754.04090,1.19812
2751.97949,1.19823
2749.91808,1.19793
2747.85667,1.19782
2745.79526,1.19819
2743.73386,1.19848
2741.67245,1.19861
2739.61104,1.19875
2737.54963,1.19858
2735.48822,1.19834
2733.42682,1.19874
2731.36541,1.19916
2729.30400,1.19868
2727.24259,1.19841
2725.18119,1.19907
2723.11978,1.19960
2721.05837,1.19956
2718.99696,1.19939
2716.93555,1.19927
2714.87415,1.19914
2712.81274,1.19910
2710.75133,1.19940
2708.68992,1.19990
2706.62851,1.20038
2704.56711,1.20071
2702.50570,1.20067
2700.44429,1.20027
2698.38288,1.19994
2696.32148,1.19985
2694.26007,1.19975
2692.19866,1.19981
2690.13725,1.20008
2688.07584,1.19999
2686.01444,1.19966
2683.95303,1.19969
2681.89162,1.19962
2679.83021,1.19919
2677.76880,1.19921
2675.70740,1.19958
2673.64599,1.19965
2671.58458,1.19960
2669.52317,1.19945
2667.46177,1.19934
2665.40036,1.19950
2663.33895,1.19978
2661.27754,1.20042
2659.21613,1.20133
2657.15473,1.20183
2655.09332,1.20178
2653.03191,1.20158
2650.97050,1.20127
2648.90909,1.20074
2646.84769,1.20010
2644.78628,1.19957
2642.72487,1.19945
2640.66346,1.19975
2638.60206,1.20007
2636.54065,1.19988
2634.47924,1.19925
2632.41783,1.19880
2630.35642,1.19860
2628.29502,1.19852
2626.23361,1.19867
2624.17220,1.19900
2622.11079,1.19940
2620.04938,1.19973
2617.98798,1.19963
2615.92657,1.19928
2613.86516,1.19920
2611.80375,1.19935
2609.74235,1.19959
2607.68094,1.19986
2605.61953,1.19994
2603.55812,1.19995
2601.49671,1.19970
2599.43531,1.19906
2597.37390,1.19865
2595.31249,1.19880
2593.25108,1.19923
2591.18967,1.19939
2589.12827,1.19914
2587.06686,1.19892
2585.00545,1.19888
2582.94404,1.19873
2580.88264,1.19853
2578.82123,1.19873
2576.75982,1.19894
2574.69841,1.19885
2572.63700,1.19906
2570.57560,1.19975
2568.51419,1.20028
2566.45278,1.20010
2564.39137,1.19953
2562.32996,1.19917
2560.26856,1.19904
2558.20715,1.19899
2556.14574,1.19868
2554.08433,1.19842
2552.02293,1.19857
2549.96152,1.19863
2547.90011,1.19850
2545.83870,1.19859
2543.77729,1.19882
2541.71589,1.19866
2539.65448,1.19833
2537.59307,1.19851
2535.53166,1.19897
2533.47025,1.19951
2531.40885,1.19982
2529.34744,1.19957
2527.28603,1.19897
2525.22462,1.19848
2523.16322,1.19863
2521.10181,1.19927
2519.04040,1.19975
2516.97899,1.19988
2514.91758,1.19994
2512.85618,1.19997
2510.79477,1.19985
2508.73336,1.19994
2506.67195,1.20041
2504.61054,1.20096
2502.54914,1.20114
2500.48773,1.20092
2498.42632,1.20067
2496.36491,1.20064
2494.30351,1.20079
2492.24210,1.20085
2490.18069,1.20096
2488.11928,1.20132
2486.05787,1.20138
2483.99647,1.20104
2481.93506,1.20084
2479.87365,1.20066
2477.81224,1.20035
2475.75083,1.20019
2473.68943,1.20024
2471.62802,1.20021
2469.56661,1.20008
2467.50520,1.19981
2465.44380,1.19929
2463.38239,1.19868
2461.32098,1.19791
2459.25957,1.19712
2457.19816,1.19650
2455.13676,1.19598
2453.07535,1.19559
2451.01394,1.19532
2448.95253,1.19525
2446.89112,1.19569
2444.82972,1.19658
2442.76831,1.19715
2440.70690,1.19716
2438.64549,1.19721
2436.58409,1.19752
2434.52268,1.19778
2432.46127,1.19752
2430.39986,1.19711
2428.33845,1.19730
2426.27705,1.19779
2424.21564,1.19816
2422.15423,1.19866
2420.09282,1.19945
2418.03141,1.20045
2415.97001,1.20159
2413.90860,1.20276
2411.84719,1.20336
2409.78578,1.20338
2407.72438,1.20367
2405.66297,1.20380
2403.60156,1.20316
2401.54015,1.20243
2399.47874,1.20171
2397.41734,1.20093
2395.35593,1.20053
2393.29452,1.20029
2391.23311,1.19994
2389.17170,1.19956
2387.11030,1.19899
2385.04889,1.19828
2382.98748,1.19757
2380.92607,1.19701
2378.86467,1.19663
2376.80326,1.19596
2374.74185,1.19508
2372.68044,1.19494
2370.61903,1.19497
2368.55763,1.19349
2366.49622,1.19151
2364.43481,1.19060
2362.37340,1.18988
2360.31199,1.18883
2358.25059,1.18866
2356.18918,1.18958
2354.12777,1.19099
2352.06636,1.19336
2350.00496,1.19570
2347.94355,1.19647
2345.88214,1.19552
2343.82073,1.19358
2341.75932,1.19218
2339.69792,1.19221
2337.63651,1.19299
2335.57510,1.19352
2333.51369,1.19344
2331.45228,1.19304
2329.39088,1.19324
2327.32947,1.19444
2325.26806,1.19568
2323.20665,1.19633
2321.14525,1.19680
2319.08384,1.19722
2317.02243,1.19747
2314.96102,1.19682
2312.89961,1.19498
2310.83821,1.19275
2308.77680,1.19075
2306.71539,1.18939
2304.65398,1.18879
2302.59257,1.18850
2300.53117,1.18837
2298.46976,1.18862
2296.40835,1.18893
2294.34694,1.18865
2292.28554,1.18801
2290.22413,1.18752
2288.16272,1.18723
2286.10131,1.18748
2284.03990,1.18821
2281.97850,1.18905
2279.91709,1.18987
2277.85568,1.19067
2275.79427,1.19146
2273.73286,1.19199
2271.67146,1.19229
2269.61005,1.19247
2267.54864,1.19202
2265.48723,1.19052
2263.42583,1.18803
2261.36442,1.18489
2259.30301,1.18162
2257.24160,1.17872
2255.18019,1.17618
2253.11879,1.17378
2251.05738,1.17185
2248.99597,1.17111
2246.93456,1.17164
2244.87315,1.17240
2242.81175,1.17237
2240.75034,1.17121
2238.68893,1.16933
2236.62752,1.16805
2234.56612,1.16839
2232.50471,1.17001
2230.44330,1.17211
2228.38189,1.17461
2226.32048,1.17743
2224.25908,1.18032
2222.19767,1.18317
2220.13626,1.18556
2218.07485,1.18660
2216.01344,1.18563
2213.95204,1.18296
2211.89063,1.18010
2209.82922,1.17841
2207.76781,1.17774
2205.70641,1.17739
2203.64500,1.17679
2201.58359,1.17555
2199.52218,1.17352
2197.46077,1.17073
2195.39937,1.16768
2193.33796,1.16481
2191.27655,1.16238
2189.21514,1.16112
2187.15373,1.16139
2185.09233,1.16288
2183.03092,1.16560
2180.96951,1.16971
2178.90810,1.17472
2176.84670,1.17963
2174.78529,1.18387
2172.72388,1.18719
2170.66247,1.18926
2168.60106,1.19040
2166.53966,1.19090
2164.47825,1.19042
2162.41684,1.18895
2160.35543,1.18719
2158.29402,1.18575
2156.23262,1.18501
2154.17121,1.18512
2152.10980,1.18563
2150.04839,1.18640
2147.98699,1.18743
2145.92558,1.18839
2143.86417,1.18902
2141.80276,1.18903
2139.74135,1.18861
2137.67995,1.18847
2135.61854,1.18822
2133.55713,1.18697
2131.49572,1.18498
2129.43431,1.18291
2127.37291,1.18143
2125.31150,1.18082
2123.25009,1.18082
2121.18868,1.18113
2119.12728,1.18166
2117.06587,1.18227
2115.00446,1.18268
2112.94305,1.18276
2110.88164,1.18215
2108.82024,1.18046
2106.75883,1.17865
2104.69742,1.17796
2102.63601,1.17806
2100.57461,1.17769
2098.51320,1.17583
2096.45179,1.17188
2094.39038,1.16566
2092.32897,1.15813
2090.26757,1.15086
2088.20616,1.14466
2086.14475,1.13982
2084.08334,1.13662
2082.02193,1.13530
2079.96053,1.13595
2077.89912,1.13791
2075.83771,1.14034
2073.77630,1.14336
2071.71490,1.14730
2069.65349,1.15247
2067.59208,1.15890
2065.53067,1.16534
2063.46926,1.17036
2061.40786,1.17450
2059.34645,1.17882
2057.28504,1.18295
2055.22363,1.18581
2053.16222,1.18638
2051.10082,1.18410
2049.03941,1.17947
2046.97800,1.17430
2044.91659,1.17036
2042.85519,1.16792
2040.79378,1.16615
2038.73237,1.16494
2036.67096,1.16519
2034.60955,1.16730
2032.54815,1.17033
2030.48674,1.17247
2028.42533,1.17255
2026.36392,1.17125
2024.30251,1.16993
2022.24111,1.16908
2020.17970,1.16839
2018.11829,1.16679
2016.05688,1.16350
2013.99548,1.15991
2011.93407,1.15761
2009.87266,1.15668
2007.81125,1.15628
2005.74984,1.15513
2003.68844,1.15299
2001.62703,1.15106
1999.56562,1.15060
1997.50421,1.15206
1995.44280,1.15629
1993.38140,1.16391
1991.31999,1.17173
1989.25858,1.17623
1987.19717,1.17789
1985.13577,1.17811
1983.07436,1.17810
1981.01295,1.17814
1978.95154,1.17829
1976.89013,1.17918
1974.82873,1.18099
1972.76732,1.18370
1970.70591,1.18774
1968.64450,1.19323
1966.58309,1.19876
1964.52169,1.20336
1962.46028,1.20840
1960.39887,1.21478
1958.33746,1.22159
1956.27606,1.22681
1954.21465,1.22811
1952.15324,1.22619
1950.09183,1.22429
1948.03042,1.22452
1945.96902,1.22723
1943.90761,1.23067
1941.84620,1.23114
1939.78479,1.22854
1937.72338,1.22600
1935.66198,1.22331
1933.60057,1.21989
1931.53916,1.21702
1929.47775,1.21586
1927.41635,1.21719
1925.35494,1.22174
1923.29353,1.22811
1921.23212,1.23327
1919.17071,1.23700
1917.10931,1.23750
1915.04790,1.23422
1912.98649,1.23179
1910.92508,1.23181
1908.86367,1.23207
1906.80227,1.23180
1904.74086,1.23238
1902.67945,1.23349
1900.61804,1.23372
1898.55664,1.23314
1896.49523,1.23272
1894.43382,1.23232
1892.37241,1.23198
1890.31100,1.23120
1888.24960,1.22843
1886.18819,1.22651
1884.12678,1.22785
1882.06537,1.23070
1880.00396,1.23368
1877.94256,1.23565
1875.88115,1.23521
1873.81974,1.23337
1871.75833,1.23330
1869.69693,1.23552
1867.63552,1.23485
1865.57411,1.22988
1863.51270,1.22477
1861.45129,1.22028
1859.38989,1.21636
1857.32848,1.21400
1855.26707,1.21367
1853.20566,1.21531
1851.14425,1.21929
1849.08285,1.22615
1847.02144,1.23540
1844.96003,1.24366
1842.89862,1.24415
1840.83722,1.24000
1838.77581,1.23791
1836.71440,1.23711
1834.65299,1.23716
1832.59158,1.24064
1830.53018,1.24627
1828.46877,1.24826
1826.40736,1.24794
1824.34595,1.24738
1822.28454,1.24539
1820.22314,1.24435
1818.16173,1.24522
1816.10032,1.24677
1814.03891,1.24905
1811.97751,1.25187
1809.91610,1.25324
1807.85469,1.25317
1805.79328,1.25376
1803.73187,1.25623
1801.67047,1.25881
1799.60906,1.25815
1797.54765,1.25646
1795.48624,1.25799
1793.42483,1.26202
1791.36343,1.26226
1789.30202,1.25789
1787.24061,1.25589
1785.17920,1.25666
1783.11780,1.25746
1781.05639,1.25812
1778.99498,1.25837
1776.93357,1.25960
1774.87216,1.26400
1772.81076,1.26919
1770.74935,1.26947
1768.68794,1.26660
1766.62653,1.26449
1764.56512,1.26498
1762.50372,1.26785
1760.44231,1.26972
1758.38090,1.27065
1756.31949,1.27118
1754.25809,1.27225
1752.19668,1.27646
1750.13527,1.28054
1748.07386,1.28034
1746.01245,1.27955
1743.95105,1.28055
1741.88964,1.28217
1739.82823,1.28266
1737.76682,1.28317
1735.70541,1.28786
1733.64401,1.29266
1731.58260,1.29102
1729.52119,1.28924
1727.45978,1.28877
1725.39838,1.28974
1723.33697,1.29212
1721.27556,1.29621
1719.21415,1.30314
1717.15274,1.30853
1715.09134,1.30742
1713.02993,1.30610
1710.96852,1.30797
1708.90711,1.31293
1706.84570,1.31966
1704.78430,1.32524
1702.72289,1.33099
1700.66148,1.33954
1698.60007,1.34669
1696.53867,1.35158
1694.47726,1.35553
1692.41585,1.36149
1690.35444,1.37289
1688.29303,1.38607
1686.23163,1.39854
1684.17022,1.41006
1682.10881,1.41343
1680.04740,1.40929
1677.98599,1.39274
1675.92459,1.34378
1673.86318,1.27115
1671.80177,1.21728
1669.74036,1.18624
1667.67896,1.17684
1665.61755,1.18377
1663.55614,1.19716
1661.49473,1.20940
1659.43332,1.21886
1657.37192,1.23003
1655.31051,1.24400
1653.24910,1.25800
1651.18769,1.26402
1649.12628,1.27060
1647.06488,1.27813
1645.00347,1.27972
1642.94206,1.28140
1640.88065,1.28695
1638.81925,1.29514
1636.75784,1.30364
1634.69643,1.30696
1632.63502,1.30801
1630.57361,1.31200
1628.51221,1.31719
1626.45080,1.32153
1624.38939,1.32533
1622.32798,1.32742
1620.26657,1.32674
1618.20517,1.32291
1616.14376,1.31283
1614.08235,1.30608
1612.02094,1.30988
1609.95954,1.31913
1607.89813,1.32392
1605.83672,1.31981
1603.77531,1.31634
1601.71390,1.32134
1599.65250,1.32816
1597.59109,1.32331
1595.52968,1.30097
1593.46827,1.26696
1591.40686,1.23290
1589.34546,1.20932
1587.28405,1.20306
1585.22264,1.21218
1583.16123,1.22912
1581.09983,1.24799
1579.03842,1.26676
1576.97701,1.28788
1574.91560,1.30880
1572.85419,1.32328
1570.79279,1.33605
1568.73138,1.34825
1566.66997,1.35888
1564.60856,1.37207
1562.54715,1.38751
1560.48575,1.39852
1558.42434,1.37891
1556.36293,1.32767
1554.30152,1.26746
1552.24012,1.21417
1550.17871,1.18956
1548.11730,1.19161
1546.05589,1.20783
1543.99448,1.22624
1541.93308,1.23354
1539.87167,1.22056
1537.81026,1.20475
1535.74885,1.19910
1533.68744,1.19614
1531.62604,1.19513
1529.56463,1.20047
1527.50322,1.21149
1525.44181,1.22448
1523.38041,1.23748
1521.31900,1.25169
1519.25759,1.26539
1517.19618,1.27935
1515.13477,1.29346
1513.07337,1.30633
1511.01196,1.32114
1508.95055,1.33811
1506.88914,1.35184
1504.82773,1.35479
1502.76633,1.35384
1500.70492,1.34897
1498.64351,1.33283
1496.58210,1.29923
1494.52070,1.26092
1492.45929,1.23034
1490.39788,1.20014
1488.33647,1.17025
1486.27506,1.14749
1484.21366,1.12568
1482.15225,1.09848
1480.09084,1.07112
1478.02943,1.05483
1475.96802,1.05152
1473.90662,1.05775
1471.84521,1.06972
1469.78380,1.08374
1467.72239,1.10150
1465.66099,1.12629
1463.59958,1.15366
1461.53817,1.17230
1459.47676,1.17474
1457.41535,1.14373
1455.35395,1.10053
1453.29254,1.08273
1451.23113,1.07577
1449.16972,1.06588
1447.10831,1.04987
1445.04691,1.03964
1442.98550,1.04187
1440.92409,1.05191
1438.86268,1.06551
1436.80128,1.08060
1434.73987,1.09183
1432.67846,1.09946
1430.61705,1.10685
1428.55564,1.11331
1426.49424,1.11977
1424.43283,1.12690
1422.37142,1.13317
1420.31001,1.13941
1418.24860,1.14449
1416.18720,1.14667
1414.12579,1.14998
1412.06438,1.15506
1410.00297,1.16023
1407.94157,1.16584
1405.88016,1.17261
1403.81875,1.18025
1401.75734,1.18932
1399.69593,1.19992
1397.63453,1.20679
1395.57312,1.20049
1393.51171,1.17714
1391.45030,1.15008
1389.38889,1.13221
1387.32749,1.12611
1385.26608,1.12871
1383.20467,1.13500
1381.14326,1.14206
1379.08186,1.14641
1377.02045,1.14438
1374.95904,1.13539
1372.89763,1.12576
1370.83622,1.12400
1368.77482,1.12981
1366.71341,1.13838
1364.65200,1.14770
1362.59059,1.15596
1360.52918,1.16001
1358.46778,1.16169
1356.40637,1.16393
1354.34496,1.16669
1352.28355,1.16989
1350.22215,1.17406
1348.16074,1.17837
1346.09933,1.18262
1344.03792,1.18792
1341.97651,1.19545
1339.91511,1.20432
1337.85370,1.21153
1335.79229,1.21705
1333.73088,1.22175
1331.66947,1.22531
1329.60807,1.22950
1327.54666,1.23106
1325.48525,1.21696
1323.42384,1.18807
1321.36244,1.16613
1319.30103,1.16245
1317.23962,1.16903
1315.17821,1.17596
1313.11680,1.17979
1311.05540,1.18080
1308.99399,1.18146
1306.93258,1.18379
1304.87117,1.18784
1302.80976,1.19286
1300.74836,1.19865
1298.68695,1.20511
1296.62554,1.21207
1294.56413,1.21938
1292.50273,1.22704
1290.44132,1.23513
1288.37991,1.24171
1286.31850,1.24148
1284.25709,1.22885
1282.19569,1.20575
1280.13428,1.18444
1278.07287,1.17565
1276.01146,1.18010
1273.95005,1.19277
1271.88865,1.20854
1269.82724,1.22388
1267.76583,1.23653
1265.70442,1.24453
1263.64302,1.24666
1261.58161,1.24296
1259.52020,1.23156
1257.45879,1.20962
1255.39738,1.18062
1253.33598,1.15317
1251.27457,1.13220
1249.21316,1.11733
1247.15175,1.10731
1245.09034,1.10231
1243.02894,1.10299
1240.96753,1.10833
1238.90612,1.11581
1236.84471,1.12377
1234.78331,1.13125
1232.72190,1.13475
1230.66049,1.13094
1228.59908,1.12469
1226.53767,1.12445
1224.47627,1.13181
1222.41486,1.14290
1220.35345,1.15485
1218.29204,1.16644
1216.23063,1.17767
1214.16923,1.18988
1212.10782,1.20374
1210.04641,1.21822
1207.98500,1.22498
1205.92360,1.20586
1203.86219,1.16583
1201.80078,1.13786
1199.73937,1.13407
1197.67796,1.14027
1195.61656,1.14448
1193.55515,1.14477
1191.49374,1.14266
1189.43233,1.14003
1187.37092,1.13820
1185.30952,1.13782
1183.24811,1.13858
1181.18670,1.13997
1179.12529,1.14205
1177.06389,1.14511
1175.00248,1.14912
1172.94107,1.15429
1170.87966,1.16198
1168.81825,1.17299
1166.75685,1.18561
1164.69544,1.19443
1162.63403,1.18845
1160.57262,1.16107
1158.51121,1.12282
1156.44981,1.09569
1154.38840,1.09253
1152.32699,1.10626
1150.26558,1.12345
1148.20418,1.13840
1146.14277,1.15047
1144.08136,1.15981
1142.01995,1.16617
1139.95854,1.16847
1137.89714,1.16791
1135.83573,1.16997
1133.77432,1.17792
1131.71291,1.18923
1129.65150,1.20128
1127.59010,1.21124
1125.52869,1.20702
1123.46728,1.17842
1121.40587,1.13786
1119.34447,1.10576
1117.28306,1.09093
1115.22165,1.08941
1113.16024,1.09113
1111.09883,1.09245
1109.03743,1.09628
1106.97602,1.10249
1104.91461,1.10908
1102.85320,1.11550
1100.79179,1.12162
1098.73039,1.12719
1096.66898,1.13231
1094.60757,1.13745
1092.54616,1.14261
1090.48476,1.14717
1088.42335,1.15083
1086.36194,1.15428
1084.30053,1.15845
1082.23912,1.16392
1080.17772,1.17088
1078.11631,1.17876
1076.05490,1.18657
1073.99349,1.19412
1071.93208,1.20128
1069.87068,1.20723
1067.80927,1.21094
1065.74786,1.20432
1063.68645,1.17708
1061.62505,1.14167
1059.56364,1.12139
1057.50223,1.12024
1055.44082,1.12834
1053.37941,1.13844
1051.31801,1.14746
1049.25660,1.15334
1047.19519,1.15761
1045.13378,1.16510
1043.07238,1.17473
1041.01097,1.17623
1038.94956,1.16481
1036.88815,1.15328
1034.82674,1.15310
1032.76534,1.16006
1030.70393,1.16850
1028.64252,1.17979
1026.58111,1.19424
1024.51970,1.21249
1022.45830,1.23914
1020.39689,1.26849
1018.33548,1.25973
1016.27407,1.18344
1014.21267,1.09564
1012.15126,1.04931
1010.08985,1.04099
1008.02844,1.04932
1005.96703,1.06232
1003.90563,1.07526
1001.84422,1.08591
999.78281,1.09436
997.72140,1.10153
995.65999,1.10732
993.59859,1.11206
991.53718,1.11651
989.47577,1.12052
987.41436,1.12426
985.35296,1.12797
983.29155,1.13143
981.23014,1.13473
979.16873,1.13723
977.10732,1.13885
975.04592,1.14119
972.98451,1.14412
970.92310,1.14605
968.86169,1.14741
966.80028,1.14946
964.73888,1.15261
962.67747,1.15511
960.61606,1.15161
958.55465,1.14328
956.49325,1.13984
954.43184,1.14308
952.37043,1.14753
950.30902,1.15136
948.24761,1.15507
946.18621,1.15902
944.12480,1.16289
942.06339,1.16596
940.00198,1.16808
937.94057,1.17026
935.87917,1.17352
933.81776,1.17601
931.75635,1.17525
929.69494,1.17208
927.63354,1.16898
925.57213,1.16744
923.51072,1.16747
921.44931,1.16830
919.38790,1.17032
917.32650,1.17424
915.26509,1.17996
913.20368,1.18743
911.14227,1.19460
909.08086,1.19312
907.01946,1.17862
904.95805,1.16383
902.89664,1.16088
900.83523,1.16643
898.77383,1.17373
896.71242,1.17950
894.65101,1.17683
892.58960,1.16241
890.52819,1.14773
888.46679,1.14392
886.40538,1.14924
884.34397,1.15705
882.28256,1.16311
880.22115,1.16711
878.15975,1.17024
876.09834,1.17304
874.03693,1.17714
871.97552,1.18377
869.91412,1.18481
867.85271,1.17055
865.79130,1.15252
863.72989,1.14714
861.66848,1.15233
859.60708,1.15868
857.54567,1.16298
855.48426,1.16660
853.42285,1.17073
851.36144,1.17457
849.30004,1.17738
847.23863,1.17952
845.17722,1.18165
843.11581,1.18399
841.05441,1.18608
838.99300,1.18670
836.93159,1.18483
834.87018,1.18170
832.80877,1.17854
830.74737,1.17451
828.68596,1.16901
826.62455,1.16307
824.56314,1.15777
822.50173,1.15319
820.44033,1.14957
818.37892,1.14746
816.31751,1.14680
814.25610,1.14648
812.19470,1.14555
810.13329,1.14510
808.07188,1.14589
806.01047,1.14770
803.94906,1.15165
801.88766,1.15690
799.82625,1.16197
797.76484,1.16694
795.70343,1.17145
793.64202,1.17566
791.58062,1.17964
789.51921,1.18299
787.45780,1.18635
785.39639,1.18953
783.33499,1.19216
781.27358,1.19558
779.21217,1.20009
777.15076,1.20520
775.08935,1.21092
773.02795,1.21849
770.96654,1.22817
768.90513,1.23967
766.84372,1.25602
764.78231,1.27841
762.72091,1.28479
760.65950,1.25235
758.59809,1.21866
756.53668,1.22137
754.47528,1.23478
752.41387,1.22492
750.35246,1.19802
748.29105,1.13824
746.22964,1.05002
744.16824,0.99312
742.10683,0.98803
740.04542,1.00993
737.98401,1.03545
735.92260,1.05645
733.86120,1.07213
731.79979,1.08285
729.73838,1.08941
727.67697,1.09466
725.61557,1.10096
723.55416,1.10709
721.49275,1.11282
719.43134,1.11937
717.36993,1.12552
715.30853,1.12799
713.24712,1.12685
711.18571,1.12930
709.12430,1.13952
707.06289,1.15290
705.00149,1.15739
702.94008,1.14253
700.87867,1.11905
698.81726,1.10637
696.75586,1.10681
694.69445,1.11238
692.63304,1.11933
690.57163,1.12751
688.51022,1.13411
686.44882,1.13475
684.38741,1.13158
682.32600,1.12699
680.26459,1.11980
678.20318,1.11489
676.14178,1.11667
674.08037,1.12165
672.01896,1.12763
669.95755,1.13368
667.89615,1.13329
665.83474,1.12695
663.77333,1.12413
661.71192,1.12496
659.65051,1.12683
657.58911,1.12829
655.52770,1.12982
653.46629,1.13182
651.40488,1.13429
649.34347,1.13672
647.28207,1.13833
645.22066,1.13953
643.15925,1.14137
641.09784,1.14391
639.03644,1.14605
636.97503,1.14700
634.91362,1.14756
632.85221,1.14909
630.79080,1.15157
628.72940,1.15413
626.66799,1.15694
624.60658,1.16025
622.54517,1.16306
620.48376,1.16211
618.42236,1.15439
616.36095,1.14291
614.29954,1.13439
612.23813,1.13236
610.17673,1.13555
608.11532,1.13963
606.05391,1.14173
603.99250,1.14226
601.93109,1.14273
599.86969,1.14371
597.80828,1.14471
595.74687,1.14586
593.68546,1.14803
591.62405,1.15135
589.56265,1.15437
587.50124,1.15540
585.43983,1.15492
583.37842,1.15529
581.31702,1.15727
579.25561,1.15994
577.19420,1.16350
575.13279,1.16688
573.07138,1.16873
571.00998,1.17009
568.94857,1.17169
566.88716,1.17562
564.82575,1.18237
562.76434,1.18266
560.70294,1.16648
558.64153,1.14683
556.58012,1.14333
554.51871,1.15277
552.45731,1.16153
550.39590,1.16136
548.33449,1.15400
546.27308,1.15036
544.21167,1.15432
542.15027,1.16037
540.08886,1.16496
538.02745,1.16788
535.96604,1.17092
533.90463,1.17750
531.84323,1.18444
529.78182,1.18312
527.72041,1.17314
525.65900,1.16469
523.59760,1.16703
521.53619,1.17864
519.47478,1.18635
517.41337,1.17882
515.35196,1.16221
513.29056,1.13903
511.22915,1.11342
509.16774,1.10331
507.10633,1.11092
505.04492,1.12152
502.98352,1.12866
500.92211,1.13256
498.86070,1.13392
496.79929,1.13611
494.73789,1.14091
492.67648,1.14658
490.61507,1.15158
488.55366,1.15683
486.49225,1.16164
484.43085,1.16337
482.36944,1.16180
480.30803,1.16247
478.24662,1.16845
476.18521,1.17591
474.12381,1.18056
472.06240,1.17798
470.00099,1.16926
467.93958,1.16071
465.87818,1.15688
463.81677,1.16137
461.75536,1.17061
459.69395,1.18127
457.63254,1.19469
455.57114,1.20545
453.50973,1.20371
451.44832,1.18479
449.38691,1.16814
447.32550,1.17555
445.26410,1.19408
443.20269,1.18289
441.14128,1.13640
439.07987,1.10517
437.01847,1.10807
434.95706,1.12199
432.89565,1.12675
430.83424,1.12171
428.77283,1.11489
426.71143,1.11047
424.65002,1.10702
422.58861,1.10994
420.52720,1.12212
418.46579,1.12908
416.40439,1.12248
414.34298,1.11653
412.28157,1.11271
410.22016,1.11095
408.15876,1.11125
406.09735,1.11108
404.03594,1.11160
401.97453,1.12003
399.91312,1.14141
