3997.06983,1.21121
3995.00842,1.21136
3992.94702,1.21111
3990.88561,1.21103
3988.82420,1.21129
3986.76279,1.21183
3984.70139,1.21220
3982.63998,1.21177
3980.57857,1.21096
3978.51716,1.21049
3976.45575,1.21097
3974.39435,1.21186
3972.33294,1.21226
3970.27153,1.21247
3968.21012,1.21265
3966.14871,1.21248
3964.08731,1.21241
3962.02590,1.21279
3959.96449,1.21297
3957.90308,1.21288
3955.84168,1.21283
3953.78027,1.21383
3951.71886,1.21662
3949.65745,1.21905
3947.59604,1.21890
3945.53464,1.21806
3943.47323,1.21840
3941.41182,1.21809
3939.35041,1.21687
3937.28900,1.21658
3935.22760,1.21808
3933.16619,1.22018
3931.10478,1.21993
3929.04337,1.21821
3926.98197,1.21907
3924.92056,1.22185
3922.85915,1.22259
3920.79774,1.22226
3918.73633,1.22319
3916.67493,1.22331
3914.61352,1.22174
3912.55211,1.22122
3910.49070,1.22277
3908.42929,1.22624
3906.36789,1.23199
3904.30648,1.23759
3902.24507,1.23934
3900.18366,1.23861
3898.12226,1.23803
3896.06085,1.23951
3893.99944,1.24383
3891.93803,1.24820
3889.87662,1.24984
3887.81522,1.25257
3885.75381,1.25759
3883.69240,1.26053
3881.63099,1.26091
3879.56958,1.25910
3877.50818,1.25740
3875.44677,1.25820
3873.38536,1.25823
3871.32395,1.25565
3869.26255,1.25114
3867.20114,1.24759
3865.13973,1.24739
3863.07832,1.24749
3861.01691,1.24631
3858.95551,1.24686
3856.89410,1.24963
3854.83269,1.25209
3852.77128,1.25109
3850.70987,1.24844
3848.64847,1.24683
3846.58706,1.24696
3844.52565,1.24970
3842.46424,1.25368
3840.40284,1.25632
3838.34143,1.25580
3836.28002,1.25402
3834.21861,1.25460
3832.15720,1.25586
3830.09580,1.25672
3828.03439,1.25901
3825.97298,1.26235
3823.91157,1.26597
3821.85016,1.26943
3819.78876,1.26940
3817.72735,1.26815
3815.66594,1.26774
3813.60453,1.26811
3811.54313,1.27061
3809.48172,1.27408
3807.42031,1.27704
3805.35890,1.27917
3803.29749,1.28196
3801.23609,1.28448
3799.17468,1.28492
3797.11327,1.28525
3795.05186,1.28519
3792.99045,1.28489
3790.92905,1.28500
3788.86764,1.28556
3786.80623,1.28688
3784.74482,1.28733
3782.68342,1.28625
3780.62201,1.28544
3778.56060,1.28443
3776.49919,1.28371
3774.43778,1.28452
3772.37638,1.28592
3770.31497,1.28705
3768.25356,1.28771
3766.19215,1.28828
3764.13074,1.28826
3762.06934,1.28859
3760.00793,1.29027
3757.94652,1.29126
3755.88511,1.29223
3753.82371,1.29508
3751.76230,1.29707
3749.70089,1.29574
3747.63948,1.29553
3745.57807,1.29690
3743.51667,1.29619
3741.45526,1.29553
3739.39385,1.29765
3737.33244,1.30192
3735.27103,1.30494
3733.20963,1.30224
3731.14822,1.29803
3729.08681,1.29734
3727.02540,1.29936
3724.96400,1.30101
3722.90259,1.30184
3720.84118,1.30400
3718.77977,1.30811
3716.71836,1.31420
3714.65696,1.32263
3712.59555,1.33172
3710.53414,1.33645
3708.47273,1.33944
3706.41132,1.34868
3704.34992,1.36703
3702.28851,1.39385
3700.22710,1.41698
3698.16569,1.42111
3696.10429,1.40783
3694.04288,1.38825
3691.98147,1.37000
3689.92006,1.35188
3687.85865,1.33508
3685.79725,1.32639
3683.73584,1.32335
3681.67443,1.32352
3679.61302,1.32736
3677.55161,1.33356
3675.49021,1.33828
3673.42880,1.33990
3671.36739,1.34383
3669.30598,1.34790
3667.24458,1.34869
3665.18317,1.35115
3663.12176,1.35670
3661.06035,1.36401
3658.99894,1.37187
3656.93754,1.37923
3654.87613,1.38493
3652.81472,1.39219
3650.75331,1.40488
3648.69190,1.41822
3646.63050,1.42534
3644.56909,1.42982
3642.50768,1.43190
3640.44627,1.42815
3638.38487,1.41757
3636.32346,1.40466
3634.26205,1.39480
3632.20064,1.39056
3630.13923,1.39057
3628.07783,1.38621
3626.01642,1.37821
3623.95501,1.37578
3621.89360,1.37962
3619.83219,1.38654
3617.77079,1.39029
3615.70938,1.39273
3613.64797,1.39681
3611.58656,1.39990
3609.52516,1.40435
3607.46375,1.41004
3605.40234,1.41346
3603.34093,1.41874
3601.27952,1.42808
3599.21812,1.43854
3597.15671,1.45154
3595.09530,1.46981
3593.03389,1.49161
3590.97248,1.51757
3588.91108,1.55427
3586.84967,1.60023
3584.78826,1.64005
3582.72685,1.67532
3580.66545,1.71344
3578.60404,1.75208
3576.54263,1.78460
3574.48122,1.80441
3572.41981,1.81185
3570.35841,1.81205
3568.29700,1.79734
3566.23559,1.75714
3564.17418,1.70874
3562.11277,1.66727
3560.05137,1.63010
3557.98996,1.59444
3555.92855,1.56374
3553.86714,1.54094
3551.80574,1.52427
3549.74433,1.51529
3547.68292,1.51647
3545.62151,1.52030
3543.56010,1.51733
3541.49870,1.50905
3539.43729,1.50008
3537.37588,1.49197
3535.31447,1.48370
3533.25306,1.47563
3531.19166,1.46977
3529.13025,1.46619
3527.06884,1.46362
3525.00743,1.46189
3522.94603,1.46118
3520.88462,1.46087
3518.82321,1.46072
3516.76180,1.46138
3514.70039,1.46326
3512.63899,1.46600
3510.57758,1.46913
3508.51617,1.47121
3506.45476,1.47237
3504.39335,1.47513
3502.33195,1.47892
3500.27054,1.48207
3498.20913,1.48472
3496.14772,1.48505
3494.08632,1.48275
3492.02491,1.48012
3489.96350,1.47850
3487.90209,1.47824
3485.84068,1.47888
3483.77928,1.47967
3481.71787,1.47925
3479.65646,1.47711
3477.59505,1.47571
3475.53364,1.47584
3473.47224,1.47611
3471.41083,1.47671
3469.34942,1.47732
3467.28801,1.47765
3465.22661,1.47826
3463.16520,1.47866
3461.10379,1.47920
3459.04238,1.47999
3456.98097,1.48069
3454.91957,1.48196
3452.85816,1.48350
3450.79675,1.48519
3448.73534,1.48800
3446.67393,1.49054
3444.61253,1.49134
3442.55112,1.49200
3440.48971,1.49323
3438.42830,1.49369
3436.36690,1.49231
3434.30549,1.49088
3432.24408,1.49206
3430.18267,1.49389
3428.12126,1.49380
3426.05986,1.49435
3423.99845,1.49721
3421.93704,1.50021
3419.87563,1.50140
3417.81422,1.50149
3415.75282,1.50300
3413.69141,1.50516
3411.63000,1.50578
3409.56859,1.50602
3407.50719,1.50694
3405.44578,1.50773
3403.38437,1.50852
3401.32296,1.50969
3399.26155,1.51032
3397.20015,1.50951
3395.13874,1.50800
3393.07733,1.50701
3391.01592,1.50582
3388.95451,1.50399
3386.89311,1.50288
3384.83170,1.50315
3382.77029,1.50385
3380.70888,1.50433
3378.64748,1.50441
3376.58607,1.50434
3374.52466,1.50425
3372.46325,1.50376
3370.40184,1.50351
3368.34044,1.50393
3366.27903,1.50511
3364.21762,1.50661
3362.15621,1.50753
3360.09480,1.50811
3358.03340,1.50835
3355.97199,1.50785
3353.91058,1.50705
3351.84917,1.50676
3349.78777,1.50727
3347.72636,1.50806
3345.66495,1.50765
3343.60354,1.50686
3341.54213,1.50797
3339.48073,1.50918
3337.41932,1.50874
3335.35791,1.50783
3333.29650,1.50731
3331.23509,1.50778
3329.17369,1.50912
3327.11228,1.50981
3325.05087,1.50960
3322.98946,1.51019
3320.92806,1.51121
3318.86665,1.51054
3316.80524,1.50977
3314.74383,1.51135
3312.68242,1.51335
3310.62102,1.51356
3308.55961,1.51256
3306.49820,1.51150
3304.43679,1.51108
3302.37538,1.51154
3300.31398,1.51299
3298.25257,1.51446
3296.19116,1.51406
3294.12975,1.51318
3292.06835,1.51413
3290.00694,1.51593
3287.94553,1.51740
3285.88412,1.51873
3283.82271,1.51962
3281.76131,1.51951
3279.69990,1.51924
3277.63849,1.51988
3275.57708,1.52110
3273.51567,1.52226
3271.45427,1.52309
3269.39286,1.52313
3267.33145,1.52315
3265.27004,1.52457
3263.20864,1.52625
3261.14723,1.52632
3259.08582,1.52557
3257.02441,1.52572
3254.96300,1.52662
3252.90160,1.52757
3250.84019,1.52853
3248.77878,1.52987
3246.71737,1.53181
3244.65596,1.53392
3242.59456,1.53540
3240.53315,1.53528
3238.47174,1.53468
3236.41033,1.53474
3234.34893,1.53449
3232.28752,1.53372
3230.22611,1.53317
3228.16470,1.53323
3226.10329,1.53382
3224.04189,1.53497
3221.98048,1.53637
3219.91907,1.53728
3217.85766,1.53749
3215.79625,1.53750
3213.73485,1.53792
3211.67344,1.53832
3209.61203,1.53834
3207.55062,1.53847
3205.48922,1.53833
3203.42781,1.53791
3201.36640,1.53843
3199.30499,1.54009
3197.24358,1.54186
3195.18218,1.54287
3193.12077,1.54247
3191.05936,1.54127
3188.99795,1.54104
3186.93654,1.54125
3184.87514,1.54090
3182.81373,1.54101
3180.75232,1.54141
3178.69091,1.54181
3176.62951,1.54290
3174.56810,1.54356
3172.50669,1.54329
3170.44528,1.54374
3168.38387,1.54433
3166.32247,1.54382
3164.26106,1.54329
3162.19965,1.54322
3160.13824,1.54261
3158.07683,1.54151
3156.01543,1.54125
3153.95402,1.54203
3151.89261,1.54263
3149.83120,1.54293
3147.76980,1.54309
3145.70839,1.54267
3143.64698,1.54247
3141.58557,1.54265
3139.52416,1.54244
3137.46276,1.54248
3135.40135,1.54330
3133.33994,1.54378
3131.27853,1.54323
3129.21713,1.54278
3127.15572,1.54305
3125.09431,1.54405
3123.03290,1.54479
3120.97149,1.54445
3118.91009,1.54425
3116.84868,1.54400
3114.78727,1.54310
3112.72586,1.54255
3110.66445,1.54248
3108.60305,1.54254
3106.54164,1.54279
3104.48023,1.54348
3102.41882,1.54404
3100.35742,1.54357
3098.29601,1.54254
3096.23460,1.54154
3094.17319,1.54087
3092.11178,1.54086
3090.05038,1.54042
3087.98897,1.53907
3085.92756,1.53904
3083.86615,1.54073
3081.80474,1.54141
3079.74334,1.54035
3077.68193,1.53870
3075.62052,1.53698
3073.55911,1.53602
3071.49771,1.53645
3069.43630,1.53730
3067.37489,1.53741
3065.31348,1.53735
3063.25207,1.53794
3061.19067,1.53778
3059.12926,1.53647
3057.06785,1.53582
3055.00644,1.53609
3052.94503,1.53610
3050.88363,1.53575
3048.82222,1.53550
3046.76081,1.53567
3044.69940,1.53567
3042.63800,1.53450
3040.57659,1.53252
3038.51518,1.53058
3036.45377,1.53038
3034.39236,1.53209
3032.33096,1.53258
3030.26955,1.53130
3028.20814,1.53058
3026.14673,1.53041
3024.08532,1.52951
3022.02392,1.52832
3019.96251,1.52738
3017.90110,1.52691
3015.83969,1.52771
3013.77829,1.52872
3011.71688,1.52819
3009.65547,1.52728
3007.59406,1.52737
3005.53265,1.52736
3003.47125,1.52639
3001.40984,1.52516
2999.34843,1.52428
2997.28702,1.52366
2995.22561,1.52271
2993.16421,1.52163
2991.10280,1.52140
2989.04139,1.52164
2986.97998,1.52156
2984.91858,1.52119
2982.85717,1.52059
2980.79576,1.52002
2978.73435,1.51944
2976.67294,1.51864
2974.61154,1.51773
2972.55013,1.51693
2970.48872,1.51595
2968.42731,1.51417
2966.36590,1.51224
2964.30450,1.51117
2962.24309,1.51095
2960.18168,1.51097
2958.12027,1.51051
2956.05887,1.51015
2953.99746,1.51034
2951.93605,1.50986
2949.87464,1.50913
2947.81323,1.50964
2945.75183,1.51023
2943.69042,1.50944
2941.62901,1.50810
2939.56760,1.50720
2937.50619,1.50658
2935.44479,1.50551
2933.38338,1.50379
2931.32197,1.50218
2929.26056,1.50168
2927.19916,1.50198
2925.13775,1.50187
2923.07634,1.50117
2921.01493,1.50046
2918.95352,1.49993
2916.89212,1.49945
2914.83071,1.49888
2912.76930,1.49788
2910.70789,1.49623
2908.64648,1.49469
2906.58508,1.49405
2904.52367,1.49383
2902.46226,1.49382
2900.40085,1.49423
2898.33945,1.49414
2896.27804,1.49241
2894.21663,1.48960
2892.15522,1.48767
2890.09381,1.48698
2888.03241,1.48661
2885.97100,1.48656
2883.90959,1.48620
2881.84818,1.48488
2879.78677,1.48364
2877.72537,1.48292
2875.66396,1.48175
2873.60255,1.48029
2871.54114,1.47893
2869.47974,1.47699
2867.41833,1.47479
2865.35692,1.47365
2863.29551,1.47368
2861.23410,1.47400
2859.17270,1.47439
2857.11129,1.47472
2855.04988,1.47391
2852.98847,1.47176
2850.92706,1.46971
2848.86566,1.46855
2846.80425,1.46785
2844.74284,1.46727
2842.68143,1.46668
2840.62003,1.46609
2838.55862,1.46573
2836.49721,1.46515
2834.43580,1.46407
2832.37439,1.46343
2830.31299,1.46305
2828.25158,1.46212
2826.19017,1.46083
2824.12876,1.45914
2822.06735,1.45742
2820.00595,1.45618
2817.94454,1.45491
2815.88313,1.45345
2813.82172,1.45299
2811.76032,1.45351
2809.69891,1.45332
2807.63750,1.45202
2805.57609,1.45062
2803.51468,1.44999
2801.45328,1.44994
2799.39187,1.44896
2797.33046,1.44681
2795.26905,1.44463
2793.20764,1.44268
2791.14624,1.44077
2789.08483,1.43910
2787.02342,1.43842
2784.96201,1.43885
2782.90061,1.43912
2780.83920,1.43862
2778.77779,1.43778
2776.71638,1.43686
2774.65497,1.43544
2772.59357,1.43389
2770.53216,1.43327
2768.47075,1.43300
2766.40934,1.43245
2764.34793,1.43178
2762.28653,1.43078
2760.22512,1.42971
2758.16371,1.42913
2756.10230,1.42887
2754.04090,1.42808
2751.97949,1.42640
2749.91808,1.42440
2747.85667,1.42287
2745.79526,1.42212
2743.73386,1.42154
2741.67245,1.42048
2739.61104,1.41897
2737.54963,1.41761
2735.48822,1.41683
2733.42682,1.41602
2731.36541,1.41509
2729.30400,1.41484
2727.24259,1.41513
2725.18119,1.41480
2723.11978,1.41396
2721.05837,1.41361
2718.99696,1.41294
2716.93555,1.41135
2714.87415,1.40956
2712.81274,1.40788
2710.75133,1.40642
2708.68992,1.40524
2706.62851,1.40425
2704.56711,1.40328
2702.50570,1.40245
2700.44429,1.40186
2698.38288,1.40120
2696.32148,1.40055
2694.26007,1.40009
2692.19866,1.39950
2690.13725,1.39834
2688.07584,1.39719
2686.01444,1.39686
2683.95303,1.39639
2681.89162,1.39505
2679.83021,1.39387
2677.76880,1.39339
2675.70740,1.39282
2673.64599,1.39156
2671.58458,1.39022
2669.52317,1.38962
2667.46177,1.38936
2665.40036,1.38898
2663.33895,1.38854
2661.27754,1.38826
2659.21613,1.38812
2657.15473,1.38777
2655.09332,1.38718
2653.03191,1.38668
2650.97050,1.38683
2648.90909,1.38724
2646.84769,1.38681
2644.78628,1.38567
2642.72487,1.38433
2640.66346,1.38282
2638.60206,1.38165
2636.54065,1.38156
2634.47924,1.38190
2632.41783,1.38117
2630.35642,1.37928
2628.29502,1.37744
2626.23361,1.37635
2624.17220,1.37559
2622.11079,1.37449
2620.04938,1.37344
2617.98798,1.37283
2615.92657,1.37210
2613.86516,1.37148
2611.80375,1.37134
2609.74235,1.37127
2607.68094,1.37089
2605.61953,1.37030
2603.55812,1.36967
2601.49671,1.36899
2599.43531,1.36836
2597.37390,1.36778
2595.31249,1.36698
2593.25108,1.36630
2591.18967,1.36593
2589.12827,1.36532
2587.06686,1.36446
2585.00545,1.36407
2582.94404,1.36421
2580.88264,1.36441
2578.82123,1.36482
2576.75982,1.36514
2574.69841,1.36449
2572.63700,1.36384
2570.57560,1.36431
2568.51419,1.36523
2566.45278,1.36602
2564.39137,1.36670
2562.32996,1.36704
2560.26856,1.36707
2558.20715,1.36737
2556.14574,1.36802
2554.08433,1.36826
2552.02293,1.36782
2549.96152,1.36707
2547.90011,1.36635
2545.83870,1.36553
2543.77729,1.36452
2541.71589,1.36394
2539.65448,1.36347
2537.59307,1.36257
2535.53166,1.36202
2533.47025,1.36183
2531.40885,1.36161
2529.34744,1.36204
2527.28603,1.36254
2525.22462,1.36197
2523.16322,1.36134
2521.10181,1.36156
2519.04040,1.36189
2516.97899,1.36172
2514.91758,1.36132
2512.85618,1.36130
2510.79477,1.36118
2508.73336,1.36009
2506.67195,1.35883
2504.61054,1.35801
2502.54914,1.35713
2500.48773,1.35644
2498.42632,1.35634
2496.36491,1.35618
2494.30351,1.35565
2492.24210,1.35502
2490.18069,1.35434
2488.11928,1.35351
2486.05787,1.35240
2483.99647,1.35163
2481.93506,1.35162
2479.87365,1.35140
2477.81224,1.35063
2475.75083,1.35012
2473.68943,1.34999
2471.62802,1.35016
2469.56661,1.35071
2467.50520,1.35107
2465.44380,1.35100
2463.38239,1.35082
2461.32098,1.35029
2459.25957,1.34931
2457.19816,1.34834
2455.13676,1.34766
2453.07535,1.34731
2451.01394,1.34729
2448.95253,1.34696
2446.89112,1.34602
2444.82972,1.34528
2442.76831,1.34512
2440.70690,1.34547
2438.64549,1.34597
2436.58409,1.34620
2434.52268,1.34611
2432.46127,1.34572
2430.39986,1.34519
2428.33845,1.34476
2426.27705,1.34474
2424.21564,1.34509
2422.15423,1.34514
2420.09282,1.34497
2418.03141,1.34533
2415.97001,1.34560
2413.90860,1.34499
2411.84719,1.34405
2409.78578,1.34376
2407.72438,1.34427
2405.66297,1.34479
2403.60156,1.34505
2401.54015,1.34530
2399.47874,1.34521
2397.41734,1.34468
2395.35593,1.34441
2393.29452,1.34489
2391.23311,1.34586
2389.17170,1.34699
2387.11030,1.34835
2385.04889,1.34979
2382.98748,1.35071
2380.92607,1.35123
2378.86467,1.35181
2376.80326,1.35214
2374.74185,1.35205
2372.68044,1.35148
2370.61903,1.34997
2368.55763,1.34796
2366.49622,1.34624
2364.43481,1.34507
2362.37340,1.34479
2360.31199,1.34556
2358.25059,1.34712
2356.18918,1.34912
2354.12777,1.35102
2352.06636,1.35402
2350.00496,1.35825
2347.94355,1.36037
2345.88214,1.35859
2343.82073,1.35567
2341.75932,1.35446
2339.69792,1.35409
2337.63651,1.35448
2335.57510,1.35584
2333.51369,1.35733
2331.45228,1.35876
2329.39088,1.36034
2327.32947,1.36230
2325.26806,1.36422
2323.20665,1.36556
2321.14525,1.36663
2319.08384,1.36800
2317.02243,1.36915
2314.96102,1.36991
2312.89961,1.37097
2310.83821,1.37203
2308.77680,1.37269
2306.71539,1.37360
2304.65398,1.37528
2302.59257,1.37693
2300.53117,1.37770
2298.46976,1.37781
2296.40835,1.37765
2294.34694,1.37737
2292.28554,1.37770
2290.22413,1.37900
2288.16272,1.38039
2286.10131,1.38154
2284.03990,1.38263
2281.97850,1.38350
2279.91709,1.38426
2277.85568,1.38508
2275.79427,1.38613
2273.73286,1.38760
2271.67146,1.38931
2269.61005,1.39084
2267.54864,1.39185
2265.48723,1.39274
2263.42583,1.39402
2261.36442,1.39536
2259.30301,1.39704
2257.24160,1.39886
2255.18019,1.40026
2253.11879,1.40203
2251.05738,1.40449
2248.99597,1.40685
2246.93456,1.40863
2244.87315,1.41033
2242.81175,1.41242
2240.75034,1.41505
2238.68893,1.41786
2236.62752,1.41996
2234.56612,1.42181
2232.50471,1.42441
2230.44330,1.42750
2228.38189,1.43079
2226.32048,1.43416
2224.25908,1.43800
2222.19767,1.44308
2220.13626,1.44916
2218.07485,1.45665
2216.01344,1.46779
2213.95204,1.48563
2211.89063,1.51325
2209.82922,1.55067
2207.76781,1.59093
2205.70641,1.62184
2203.64500,1.63309
2201.58359,1.62519
2199.52218,1.60866
2197.46077,1.59131
2195.39937,1.57498
2193.33796,1.56119
2191.27655,1.55205
2189.21514,1.54826
2187.15373,1.54823
2185.09233,1.54947
2183.03092,1.55096
2180.96951,1.55261
2178.90810,1.55453
2176.84670,1.55702
2174.78529,1.56055
2172.72388,1.56598
2170.66247,1.57274
2168.60106,1.57984
2166.53966,1.58796
2164.47825,1.59644
2162.41684,1.60345
2160.35543,1.60964
2158.29402,1.61568
2156.23262,1.62008
2154.17121,1.62350
2152.10980,1.62800
2150.04839,1.63279
2147.98699,1.63610
2145.92558,1.63779
2143.86417,1.63928
2141.80276,1.64073
2139.74135,1.64049
2137.67995,1.63923
2135.61854,1.63853
2133.55713,1.63806
2131.49572,1.63739
2129.43431,1.63703
2127.37291,1.63755
2125.31150,1.63769
2123.25009,1.63664
2121.18868,1.63624
2119.12728,1.63709
2117.06587,1.63779
2115.00446,1.63791
2112.94305,1.63863
2110.88164,1.64055
2108.82024,1.64255
2106.75883,1.64429
2104.69742,1.64714
2102.63601,1.65143
2100.57461,1.65619
2098.51320,1.66061
2096.45179,1.66454
2094.39038,1.66851
2092.32897,1.67337
2090.26757,1.67943
2088.20616,1.68551
2086.14475,1.69050
2084.08334,1.69502
2082.02193,1.69983
2079.96053,1.70424
2077.89912,1.70584
2075.83771,1.70385
2073.77630,1.69974
2071.71490,1.69530
2069.65349,1.69254
2067.59208,1.69060
2065.53067,1.68731
2063.46926,1.68358
2061.40786,1.68057
2059.34645,1.67803
2057.28504,1.67674
2055.22363,1.67758
2053.16222,1.67942
2051.10082,1.68140
2049.03941,1.68330
2046.97800,1.68375
2044.91659,1.68214
2042.85519,1.67934
2040.79378,1.67611
2038.73237,1.67292
2036.67096,1.67145
2034.60955,1.67256
2032.54815,1.67443
2030.48674,1.67666
2028.42533,1.68093
2026.36392,1.68816
2024.30251,1.69812
2022.24111,1.70889
2020.17970,1.71889
2018.11829,1.72843
2016.05688,1.73643
2013.99548,1.74068
2011.93407,1.74116
2009.87266,1.73929
2007.81125,1.73704
2005.74984,1.73587
2003.68844,1.73535
2001.62703,1.73450
1999.56562,1.73263
1997.50421,1.73051
1995.44280,1.73039
1993.38140,1.73247
1991.31999,1.73473
1989.25858,1.73609
1987.19717,1.73611
1985.13577,1.73242
1983.07436,1.72189
1981.01295,1.70532
1978.95154,1.68728
1976.89013,1.66947
1974.82873,1.65183
1972.76732,1.63644
1970.70591,1.62401
1968.64450,1.61236
1966.58309,1.59945
1964.52169,1.58695
1962.46028,1.57757
1960.39887,1.57020
1958.33746,1.56265
1956.27606,1.55464
1954.21465,1.54649
1952.15324,1.53877
1950.09183,1.53269
1948.03042,1.52873
1945.96902,1.52613
1943.90761,1.52420
1941.84620,1.52119
1939.78479,1.51700
1937.72338,1.51436
1935.66198,1.51402
1933.60057,1.51467
1931.53916,1.51569
1929.47775,1.51749
1927.41635,1.52050
1925.35494,1.52528
1923.29353,1.52901
1921.23212,1.52774
1919.17071,1.52364
1917.10931,1.51763
1915.04790,1.51004
1912.98649,1.50516
1910.92508,1.50364
1908.86367,1.50155
1906.80227,1.49779
1904.74086,1.49477
1902.67945,1.49300
1900.61804,1.49125
1898.55664,1.48986
1896.49523,1.49019
1894.43382,1.49083
1892.37241,1.49168
1890.31100,1.49347
1888.24960,1.49290
1886.18819,1.49047
1884.12678,1.48905
1882.06537,1.48788
1880.00396,1.48638
1877.94256,1.48544
1875.88115,1.48503
1873.81974,1.48480
1871.75833,1.48747
1869.69693,1.49252
1867.63552,1.49229
1865.57411,1.48700
1863.51270,1.48377
1861.45129,1.48362
1859.38989,1.48415
1857.32848,1.48408
1855.26707,1.48395
1853.20566,1.48358
1851.14425,1.48341
1849.08285,1.48479
1847.02144,1.48844
1844.96003,1.49240
1842.89862,1.49017
1840.83722,1.48517
1838.77581,1.48386
1836.71440,1.48429
1834.65299,1.48463
1832.59158,1.48703
1830.53018,1.49118
1828.46877,1.49255
1826.40736,1.49222
1824.34595,1.49098
1822.28454,1.48810
1820.22314,1.48744
1818.16173,1.48911
1816.10032,1.49059
1814.03891,1.49279
1811.97751,1.49570
1809.91610,1.49607
1807.85469,1.49475
1805.79328,1.49579
1803.73187,1.50040
1801.67047,1.50591
1799.60906,1.50827
1797.54765,1.50904
1795.48624,1.51170
1793.42483,1.51575
1791.36343,1.51598
1789.30202,1.51212
1787.24061,1.51193
1785.17920,1.51567
1783.11780,1.51892
1781.05639,1.52089
1778.99498,1.52126
1776.93357,1.52199
1774.87216,1.52645
1772.81076,1.53181
1770.74935,1.53118
1768.68794,1.52643
1766.62653,1.52164
1764.56512,1.52066
1762.50372,1.52453
1760.44231,1.52708
1758.38090,1.52718
1756.31949,1.52738
1754.25809,1.52925
1752.19668,1.53513
1750.13527,1.54061
1748.07386,1.54035
1746.01245,1.53902
1743.95105,1.53990
1741.88964,1.54218
1739.82823,1.54455
1737.76682,1.54739
1735.70541,1.55360
1733.64401,1.55938
1731.58260,1.55833
1729.52119,1.55633
1727.45978,1.55476
1725.39838,1.55440
1723.33697,1.55625
1721.27556,1.56094
1719.21415,1.57051
1717.15274,1.57933
1715.09134,1.57677
1713.02993,1.57188
1710.96852,1.57153
1708.90711,1.57554
1706.84570,1.58325
1704.78430,1.59122
1702.72289,1.59766
1700.66148,1.60471
1698.60007,1.60850
1696.53867,1.60709
1694.47726,1.60401
1692.41585,1.60473
1690.35444,1.60985
1688.29303,1.61606
1686.23163,1.62409
1684.17022,1.63248
1682.10881,1.63129
1680.04740,1.62871
1677.98599,1.63088
1675.92459,1.63515
1673.86318,1.63799
1671.80177,1.64157
1669.74036,1.64519
1667.67896,1.64459
1665.61755,1.64529
1663.55614,1.64939
1661.49473,1.65224
1659.43332,1.65357
1657.37192,1.65801
1655.31051,1.66719
1653.24910,1.67367
1651.18769,1.66992
1649.12628,1.67112
1647.06488,1.67475
1645.00347,1.67281
1642.94206,1.67109
1640.88065,1.67308
1638.81925,1.67755
1636.75784,1.68091
1634.69643,1.67608
1632.63502,1.66984
1630.57361,1.66836
1628.51221,1.66841
1626.45080,1.66838
1624.38939,1.66922
1622.32798,1.66896
1620.26657,1.66716
1618.20517,1.66535
1616.14376,1.66247
1614.08235,1.66067
1612.02094,1.66154
1609.95954,1.66353
1607.89813,1.66467
1605.83672,1.66520
1603.77531,1.66707
1601.71390,1.66912
1599.65250,1.67031
1597.59109,1.67261
1595.52968,1.67559
1593.46827,1.67801
1591.40686,1.68148
1589.34546,1.68694
1587.28405,1.69352
1585.22264,1.70106
1583.16123,1.71014
1581.09983,1.72037
1579.03842,1.73139
1576.97701,1.74437
1574.91560,1.75477
1572.85419,1.76060
1570.79279,1.76904
1568.73138,1.77890
1566.66997,1.78636
1564.60856,1.79549
1562.54715,1.80596
1560.48575,1.81959
1558.42434,1.84639
1556.36293,1.86624
1554.30152,1.87405
1552.24012,1.87903
1550.17871,1.88166
1548.11730,1.88114
1546.05589,1.88128
1543.99448,1.88384
1541.93308,1.88289
1539.87167,1.87258
1537.81026,1.86192
1535.74885,1.85796
1533.68744,1.85689
1531.62604,1.85690
1529.56463,1.85756
1527.50322,1.85983
1525.44181,1.86503
1523.38041,1.87070
1521.31900,1.87125
1519.25759,1.86913
1517.19618,1.87154
1515.13477,1.87459
1513.07337,1.87602
1511.01196,1.87745
1508.95055,1.87706
1506.88914,1.87214
1504.82773,1.86868
1502.76633,1.87119
1500.70492,1.87578
1498.64351,1.87952
1496.58210,1.88008
1494.52070,1.87945
1492.45929,1.88221
1490.39788,1.88789
1488.33647,1.89097
1486.27506,1.88987
1484.21366,1.88927
1482.15225,1.89146
1480.09084,1.89512
1478.02943,1.89914
1475.96802,1.90387
1473.90662,1.90950
1471.84521,1.91294
1469.78380,1.91272
1467.72239,1.91461
1465.66099,1.91847
1463.59958,1.91863
1461.53817,1.91674
1459.47676,1.91680
1457.41535,1.91587
1455.35395,1.90967
1453.29254,1.90248
1451.23113,1.89686
1449.16972,1.89433
1447.10831,1.89400
1445.04691,1.89333
1442.98550,1.89285
1440.92409,1.89409
1438.86268,1.89676
1436.80128,1.89889
1434.73987,1.89935
1432.67846,1.90055
1430.61705,1.90357
1428.55564,1.90656
1426.49424,1.90929
1424.43283,1.91285
1422.37142,1.91522
1420.31001,1.91616
1418.24860,1.91695
1416.18720,1.91690
1414.12579,1.91646
1412.06438,1.91477
1410.00297,1.91324
1407.94157,1.91613
1405.88016,1.92080
1403.81875,1.92083
1401.75734,1.91825
1399.69593,1.91776
1397.63453,1.91900
1395.57312,1.91905
1393.51171,1.91690
1391.45030,1.91640
1389.38889,1.91857
1387.32749,1.91946
1385.26608,1.91853
1383.20467,1.91983
1381.14326,1.92338
1379.08186,1.92702
1377.02045,1.93077
1374.95904,1.93274
1372.89763,1.92968
1370.83622,1.92704
1368.77482,1.92898
1366.71341,1.93276
1364.65200,1.93721
1362.59059,1.93971
1360.52918,1.93834
1358.46778,1.93883
1356.40637,1.94227
1354.34496,1.94490
1352.28355,1.94761
1350.22215,1.95254
1348.16074,1.95816
1346.09933,1.96446
1344.03792,1.97231
1341.97651,1.98175
1339.91511,1.99051
1337.85370,1.99261
1335.79229,1.99228
1333.73088,1.99800
1331.66947,2.00660
1329.60807,2.01313
1327.54666,2.01627
1325.48525,2.01671
1323.42384,2.02065
1321.36244,2.03008
1319.30103,2.03899
1317.23962,2.04504
1315.17821,2.05151
1313.11680,2.05769
1311.05540,2.06093
1308.99399,2.06378
1306.93258,2.06960
1304.87117,2.07929
1302.80976,2.09068
1300.74836,2.09962
1298.68695,2.10533
1296.62554,2.11021
1294.56413,2.11718
1292.50273,2.12882
1290.44132,2.14169
1288.37991,2.15145
1286.31850,2.16118
1284.25709,2.17264
1282.19569,2.18098
1280.13428,2.18663
1278.07287,2.19565
1276.01146,2.20881
1273.95005,2.22144
1271.88865,2.23029
1269.82724,2.24049
1267.76583,2.25461
1265.70442,2.26348
1263.64302,2.26444
1261.58161,2.26817
1259.52020,2.27903
1257.45879,2.29448
1255.39738,2.31077
1253.33598,2.32204
1251.27457,2.33327
1249.21316,2.35007
1247.15175,2.36777
1245.09034,2.38512
1243.02894,2.39982
1240.96753,2.40554
1238.90612,2.40731
1236.84471,2.41853
1234.78331,2.44030
1232.72190,2.46337
1230.66049,2.48633
1228.59908,2.51060
1226.53767,2.53656
1224.47627,2.57163
1222.41486,2.61261
1220.35345,2.64530
1218.29204,2.66632
1216.23063,2.69440
1214.16923,2.73983
1212.10782,2.78661
1210.04641,2.83007
1207.98500,2.88294
1205.92360,2.94903
1203.86219,3.01501
1201.80078,3.05713
1199.73937,3.08875
1197.67796,3.15022
1195.61656,3.25003
1193.55515,3.35359
1191.49374,3.42689
1189.43233,3.55914
1187.37092,3.78822
1185.30952,3.90469
1183.24811,3.90867
1181.18670,3.89271
1179.12529,3.88265
1177.06389,3.92924
1175.00248,3.93164
1172.94107,3.77777
1170.87966,4.04061
1168.81825,3.78568
1166.75685,3.48126
1164.69544,3.20981
1162.63403,3.05783
1160.57262,2.91784
1158.51121,2.76993
1156.44981,2.62210
1154.38840,2.48336
1152.32699,2.36349
1150.26558,2.26059
1148.20418,2.16140
1146.14277,2.05959
1144.08136,1.95721
1142.01995,1.85503
1139.95854,1.75136
1137.89714,1.64501
1135.83573,1.53437
1133.77432,1.41817
1131.71291,1.29827
1129.65150,1.17785
1127.59010,1.06126
1125.52869,0.95396
1123.46728,0.86034
1121.40587,0.78289
1119.34447,0.72268
1117.28306,0.67925
1115.22165,0.65048
1113.16024,0.63295
1111.09883,0.62293
1109.03743,0.61742
1106.97602,0.61436
1104.91461,0.61246
1102.85320,0.61096
1100.79179,0.61008
1098.73039,0.61129
1096.66898,0.61640
1094.60757,0.62699
1092.54616,0.64509
1090.48476,0.67340
1088.42335,0.71408
1086.36194,0.76462
1084.30053,0.80948
1082.23912,0.82151
1080.17772,0.78793
1078.11631,0.72782
1076.05490,0.66984
1073.99349,0.62888
1071.93208,0.60518
1069.87068,0.59293
1067.80927,0.58701
1065.74786,0.58465
1063.68645,0.58427
1061.62505,0.58467
1059.56364,0.58500
1057.50223,0.58477
1055.44082,0.58422
1053.37941,0.58384
1051.31801,0.58413
1049.25660,0.58590
1047.19519,0.58985
1045.13378,0.59615
1043.07238,0.60400
1041.01097,0.61226
1038.94956,0.62044
1036.88815,0.62766
1034.82674,0.63297
1032.76534,0.64010
1030.70393,0.65586
1028.64252,0.68156
1026.58111,0.71224
1024.51970,0.74430
1022.45830,0.77700
1020.39689,0.80859
1018.33548,0.83754
1016.27407,0.86426
1014.21267,0.88915
1012.15126,0.91205
1010.08985,0.93298
1008.02844,0.95190
1005.96703,0.96932
1003.90563,0.98605
1001.84422,1.00222
999.78281,1.01786
997.72140,1.03328
995.65999,1.04837
993.59859,1.06274
991.53718,1.07645
989.47577,1.08995
987.41436,1.10336
985.35296,1.11628
983.29155,1.12841
981.23014,1.14019
979.16873,1.15238
977.10732,1.16532
975.04592,1.17893
972.98451,1.19362
970.92310,1.21000
968.86169,1.22743
966.80028,1.24057
964.73888,1.23776
962.67747,1.21774
960.61606,1.19981
958.55465,1.19755
956.49325,1.20592
954.43184,1.21637
952.37043,1.22595
950.30902,1.23437
948.24761,1.24199
946.18621,1.24888
944.12480,1.25493
942.06339,1.26147
940.00198,1.26900
937.94057,1.27578
935.87917,1.28118
933.81776,1.28662
931.75635,1.29294
929.69494,1.29928
927.63354,1.30500
925.57213,1.31026
923.51072,1.31501
921.44931,1.31880
919.38790,1.32304
917.32650,1.32947
915.26509,1.33567
913.20368,1.33972
911.14227,1.34351
909.08086,1.34796
907.01946,1.35286
904.95805,1.35850
902.89664,1.36406
900.83523,1.36832
898.77383,1.37214
896.71242,1.37668
894.65101,1.38170
892.58960,1.38570
890.52819,1.38837
888.46679,1.39150
886.40538,1.39515
884.34397,1.39912
882.28256,1.40288
880.22115,1.40446
878.15975,1.40502
876.09834,1.40744
874.03693,1.41124
871.97552,1.41407
869.91412,1.41624
867.85271,1.41872
865.79130,1.42164
863.72989,1.42538
861.66848,1.42878
859.60708,1.43141
857.54567,1.43504
855.48426,1.43935
853.42285,1.44239
851.36144,1.44412
849.30004,1.44622
847.23863,1.45024
845.17722,1.45483
843.11581,1.45774
841.05441,1.45990
838.99300,1.46260
836.93159,1.46553
834.87018,1.46960
832.80877,1.47433
830.74737,1.47841
828.68596,1.48312
826.62455,1.48785
824.56314,1.49133
822.50173,1.49398
820.44033,1.49662
818.37892,1.49957
816.31751,1.50215
814.25610,1.50501
812.19470,1.50829
810.13329,1.51213
808.07188,1.51709
806.01047,1.52116
803.94906,1.52305
801.88766,1.52396
799.82625,1.52621
797.76484,1.53050
795.70343,1.53464
793.64202,1.53895
791.58062,1.54494
789.51921,1.55089
787.45780,1.55373
785.39639,1.55366
783.33499,1.55548
781.27358,1.55986
779.21217,1.56396
777.15076,1.56799
775.08935,1.57301
773.02795,1.57957
770.96654,1.58569
768.90513,1.58950
766.84372,1.59140
764.78231,1.59173
762.72091,1.59352
760.65950,1.59914
758.59809,1.60715
756.53668,1.61406
754.47528,1.61850
752.41387,1.62216
750.35246,1.62598
748.29105,1.63029
746.22964,1.63510
744.16824,1.64103
742.10683,1.64645
740.04542,1.65180
737.98401,1.66027
735.92260,1.66999
733.86120,1.67688
731.79979,1.67988
729.73838,1.68355
727.67697,1.69010
725.61557,1.69697
723.55416,1.70373
721.49275,1.71101
719.43134,1.71962
717.36993,1.73130
715.30853,1.74138
713.24712,1.74578
711.18571,1.75138
709.12430,1.76095
707.06289,1.77062
705.00149,1.78157
702.94008,1.79722
700.87867,1.81288
698.81726,1.82020
696.75586,1.82397
694.69445,1.83399
692.63304,1.84946
690.57163,1.86843
688.51022,1.89273
686.44882,1.91920
684.38741,1.94186
682.32600,1.95866
680.26459,1.97203
678.20318,1.98516
676.14178,1.99991
674.08037,2.01522
672.01896,2.03722
669.95755,2.06907
667.89615,2.11258
665.83474,2.14875
663.77333,2.16895
661.71192,2.19276
659.65051,2.22541
657.58911,2.26199
655.52770,2.29196
653.46629,2.31162
651.40488,2.31229
649.34347,2.25479
647.28207,2.15422
645.22066,2.05672
643.15925,1.96553
641.09784,1.87028
639.03644,1.77728
636.97503,1.69885
634.91362,1.64175
632.85221,1.60756
630.79080,1.59895
628.72940,1.61967
626.66799,1.66643
624.60658,1.73261
622.54517,1.80685
620.48376,1.86176
618.42236,1.86885
616.36095,1.81923
614.29954,1.71775
612.23813,1.56825
610.17673,1.38812
608.11532,1.21741
606.05391,1.08784
603.99250,1.00950
601.93109,0.98215
599.86969,1.00567
597.80828,1.07993
595.74687,1.19143
593.68546,1.30496
591.62405,1.38252
589.56265,1.40719
587.50124,1.38335
585.43983,1.32122
583.37842,1.22766
581.31702,1.11515
579.25561,1.00595
577.19420,0.91722
575.13279,0.85515
573.07138,0.82275
571.00998,0.81697
568.94857,0.82847
566.88716,0.84833
564.82575,0.87365
562.76434,0.90429
560.70294,0.93744
558.64153,0.97091
556.58012,1.00530
554.51871,1.04019
552.45731,1.07387
550.39590,1.10494
548.33449,1.13232
546.27308,1.15612
544.21167,1.17662
542.15027,1.19348
540.08886,1.21240
538.02745,1.23831
535.96604,1.26454
533.90463,1.28306
531.84323,1.29763
529.78182,1.31512
527.72041,1.33547
525.65900,1.35252
523.59760,1.36163
521.53619,1.37076
519.47478,1.38511
517.41337,1.39721
515.35196,1.40539
513.29056,1.41773
511.22915,1.43351
509.16774,1.44581
507.10633,1.44956
505.04492,1.44696
502.98352,1.45398
500.92211,1.47190
498.86070,1.48524
496.79929,1.49588
494.73789,1.50380
492.67648,1.50916
490.61507,1.52690
488.55366,1.55252
486.49225,1.57102
484.43085,1.58454
482.36944,1.59470
480.30803,1.59730
478.24662,1.59470
476.18521,1.59286
474.12381,1.59432
472.06240,1.60074
470.00099,1.60261
467.93958,1.59612
465.87818,1.60476
463.81677,1.63176
461.75536,1.64605
459.69395,1.65338
457.63254,1.67710
455.57114,1.70013
453.50973,1.70747
451.44832,1.70221
449.38691,1.70352
447.32550,1.72743
445.26410,1.75119
443.20269,1.76484
441.14128,1.78669
439.07987,1.81934
437.01847,1.85296
434.95706,1.87577
432.89565,1.88373
430.83424,1.89207
428.77283,1.89867
426.71143,1.89484
424.65002,1.90513
422.58861,1.97037
420.52720,2.10924
418.46579,2.19681
416.40439,2.17642
414.34298,2.18910
412.28157,2.23849
410.22016,2.39499
408.15876,2.49726
406.09735,2.54694
404.03594,2.77119
401.97453,2.70945
399.91312,2.34261
