3997.06983,1.20012
3995.00842,1.20087
3992.94702,1.20071
3990.88561,1.20118
3988.82420,1.20257
3986.76279,1.20328
3984.70139,1.20341
3982.63998,1.20430
3980.57857,1.20605
3978.51716,1.20804
3976.45575,1.21006
3974.39435,1.21167
3972.33294,1.21272
3970.27153,1.21402
3968.21012,1.21558
3966.14871,1.21714
3964.08731,1.21986
3962.02590,1.22419
3959.96449,1.22856
3957.90308,1.23232
3955.84168,1.23630
3953.78027,1.24060
3951.71886,1.24500
3949.65745,1.24861
3947.59604,1.25013
3945.53464,1.25143
3943.47323,1.25384
3941.41182,1.25354
3939.35041,1.25058
3937.28900,1.24859
3935.22760,1.24720
3933.16619,1.24497
3931.10478,1.24073
3929.04337,1.23438
3926.98197,1.22797
3924.92056,1.22216
3922.85915,1.21577
3920.79774,1.20995
3918.73633,1.20521
3916.67493,1.19862
3914.61352,1.19064
3912.55211,1.18389
3910.49070,1.17789
3908.42929,1.17333
3906.36789,1.17211
3904.30648,1.17249
3902.24507,1.17029
3900.18366,1.16474
3898.12226,1.15788
3896.06085,1.15321
3893.99944,1.15231
3891.93803,1.15202
3889.87662,1.14923
3887.81522,1.14748
3885.75381,1.14740
3883.69240,1.14541
3881.63099,1.14267
3879.56958,1.13962
3877.50818,1.13787
3875.44677,1.13948
3873.38536,1.14156
3871.32395,1.14207
3869.26255,1.14009
3867.20114,1.13745
3865.13973,1.13699
3863.07832,1.13493
3861.01691,1.13072
3858.95551,1.12914
3856.89410,1.13124
3854.83269,1.13519
3852.77128,1.13454
3850.70987,1.12810
3848.64847,1.12401
3846.58706,1.12360
3844.52565,1.12648
3842.46424,1.13120
3840.40284,1.13467
3838.34143,1.13409
3836.28002,1.13026
3834.21861,1.12721
3832.15720,1.12492
3830.09580,1.12277
3828.03439,1.12205
3825.97298,1.12254
3823.91157,1.12468
3821.85016,1.12841
3819.78876,1.12905
3817.72735,1.12774
3815.66594,1.12628
3813.60453,1.12340
3811.54313,1.12238
3809.48172,1.12438
3807.42031,1.12700
3805.35890,1.12770
3803.29749,1.12849
3801.23609,1.12837
3799.17468,1.12624
3797.11327,1.12550
3795.05186,1.12443
3792.99045,1.12275
3790.92905,1.12258
3788.86764,1.12355
3786.80623,1.12517
3784.74482,1.12652
3782.68342,1.12666
3780.62201,1.12709
3778.56060,1.12743
3776.49919,1.12672
3774.43778,1.12689
3772.37638,1.12877
3770.31497,1.13129
3768.25356,1.13337
3766.19215,1.13457
3764.13074,1.13442
3762.06934,1.13506
3760.00793,1.13796
3757.94652,1.13995
3755.88511,1.14099
3753.82371,1.14508
3751.76230,1.15125
3749.70089,1.15235
3747.63948,1.15083
3745.57807,1.15118
3743.51667,1.14914
3741.45526,1.14764
3739.39385,1.15130
3737.33244,1.15861
3735.27103,1.16442
3733.20963,1.16373
3731.14822,1.16073
3729.08681,1.16140
3727.02540,1.16662
3724.96400,1.17274
3722.90259,1.17627
3720.84118,1.17903
3718.77977,1.18382
3716.71836,1.19028
3714.65696,1.19827
3712.59555,1.20947
3710.53414,1.21942
3708.47273,1.22304
3706.41132,1.22664
3704.34992,1.23368
3702.28851,1.24174
3700.22710,1.24683
3698.16569,1.24969
3696.10429,1.25260
3694.04288,1.25595
3691.98147,1.26010
3689.92006,1.26328
3687.85865,1.26209
3685.79725,1.25964
3683.73584,1.25971
3681.67443,1.26274
3679.61302,1.26736
3677.55161,1.27328
3675.49021,1.27985
3673.42880,1.28280
3671.36739,1.28509
3669.30598,1.28642
3667.24458,1.28425
3665.18317,1.28364
3663.12176,1.28611
3661.06035,1.28960
3658.99894,1.29407
3656.93754,1.30014
3654.87613,1.30492
3652.81472,1.30990
3650.75331,1.31948
3648.69190,1.32666
3646.63050,1.32331
3644.56909,1.31989
3642.50768,1.32043
3640.44627,1.32279
3638.38487,1.32575
3636.32346,1.32925
3634.26205,1.33336
3632.20064,1.33968
3630.13923,1.34891
3628.07783,1.35283
3626.01642,1.34917
3623.95501,1.34904
3621.89360,1.35417
3619.83219,1.36055
3617.77079,1.36314
3615.70938,1.36361
3613.64797,1.36527
3611.58656,1.36740
3609.52516,1.36970
3607.46375,1.37062
3605.40234,1.36995
3603.34093,1.37174
3601.27952,1.37693
3599.21812,1.38236
3597.15671,1.38671
3595.09530,1.39012
3593.03389,1.39149
3590.97248,1.39221
3588.91108,1.39536
3586.84967,1.39951
3584.78826,1.40034
3582.72685,1.39910
3580.66545,1.39783
3578.60404,1.39712
3576.54263,1.39680
3574.48122,1.39631
3572.41981,1.39699
3570.35841,1.40051
3568.29700,1.40537
3566.23559,1.40530
3564.17418,1.39974
3562.11277,1.39612
3560.05137,1.39550
3557.98996,1.39597
3555.92855,1.39751
3553.86714,1.39993
3551.80574,1.40138
3549.74433,1.40196
3547.68292,1.40443
3545.62151,1.40714
3543.56010,1.40700
3541.49870,1.40529
3539.43729,1.40416
3537.37588,1.40420
3535.31447,1.40488
3533.25306,1.40598
3531.19166,1.40731
3529.13025,1.40896
3527.06884,1.41041
3525.00743,1.41073
3522.94603,1.41068
3520.88462,1.41083
3518.82321,1.41090
3516.76180,1.41119
3514.70039,1.41269
3512.63899,1.41534
3510.57758,1.41684
3508.51617,1.41564
3506.45476,1.41467
3504.39335,1.41579
3502.33195,1.41667
3500.27054,1.41685
3498.20913,1.41783
3496.14772,1.41856
3494.08632,1.41851
3492.02491,1.41931
3489.96350,1.42081
3487.90209,1.42187
3485.84068,1.42293
3483.77928,1.42411
3481.71787,1.42482
3479.65646,1.42466
3477.59505,1.42450
3475.53364,1.42554
3473.47224,1.42683
3471.41083,1.42786
3469.34942,1.42974
3467.28801,1.43121
3465.22661,1.43093
3463.16520,1.43075
3461.10379,1.43133
3459.04238,1.43152
3456.98097,1.43160
3454.91957,1.43182
3452.85816,1.43174
3450.79675,1.43232
3448.73534,1.43437
3446.67393,1.43638
3444.61253,1.43683
3442.55112,1.43633
3440.48971,1.43611
3438.42830,1.43623
3436.36690,1.43624
3434.30549,1.43690
3432.24408,1.43753
3430.18267,1.43678
3428.12126,1.43611
3426.05986,1.43668
3423.99845,1.43755
3421.93704,1.43741
3419.87563,1.43611
3417.81422,1.43544
3415.75282,1.43685
3413.69141,1.43927
3411.63000,1.44010
3409.56859,1.43881
3407.50719,1.43774
3405.44578,1.43760
3403.38437,1.43736
3401.32296,1.43731
3399.26155,1.43780
3397.20015,1.43838
3395.13874,1.43859
3393.07733,1.43866
3391.01592,1.43883
3388.95451,1.43931
3386.89311,1.44018
3384.83170,1.44093
3382.77029,1.44149
3380.70888,1.44160
3378.64748,1.44090
3376.58607,1.43967
3374.52466,1.43884
3372.46325,1.43875
3370.40184,1.43886
3368.34044,1.43973
3366.27903,1.44085
3364.21762,1.44014
3362.15621,1.43836
3360.09480,1.43764
3358.03340,1.43790
3355.97199,1.43780
3353.91058,1.43707
3351.84917,1.43700
3349.78777,1.43746
3347.72636,1.43755
3345.66495,1.43773
3343.60354,1.43839
3341.54213,1.43902
3339.48073,1.43849
3337.41932,1.43697
3335.35791,1.43569
3333.29650,1.43511
3331.23509,1.43496
3329.17369,1.43458
3327.11228,1.43406
3325.05087,1.43412
3322.98946,1.43472
3320.92806,1.43566
3318.86665,1.43642
3316.80524,1.43617
3314.74383,1.43574
3312.68242,1.43613
3310.62102,1.43621
3308.55961,1.43498
3306.49820,1.43390
3304.43679,1.43426
3302.37538,1.43491
3300.31398,1.43469
3298.25257,1.43460
3296.19116,1.43539
3294.12975,1.43547
3292.06835,1.43452
3290.00694,1.43417
3287.94553,1.43474
3285.88412,1.43530
3283.82271,1.43502
3281.76131,1.43441
3279.69990,1.43466
3277.63849,1.43568
3275.57708,1.43647
3273.51567,1.43638
3271.45427,1.43602
3269.39286,1.43605
3267.33145,1.43662
3265.27004,1.43755
3263.20864,1.43752
3261.14723,1.43621
3259.08582,1.43536
3257.02441,1.43596
3254.96300,1.43714
3252.90160,1.43740
3250.84019,1.43641
3248.77878,1.43531
3246.71737,1.43548
3244.65596,1.43685
3242.59456,1.43771
3240.53315,1.43765
3238.47174,1.43802
3236.41033,1.43939
3234.34893,1.44052
3232.28752,1.44047
3230.22611,1.44016
3228.16470,1.44058
3226.10329,1.44104
3224.04189,1.44089
3221.98048,1.44105
3219.91907,1.44184
3217.85766,1.44275
3215.79625,1.44306
3213.73485,1.44170
3211.67344,1.43951
3209.61203,1.43798
3207.55062,1.43717
3205.48922,1.43687
3203.42781,1.43658
3201.36640,1.43599
3199.30499,1.43569
3197.24358,1.43557
3195.18218,1.43487
3193.12077,1.43409
3191.05936,1.43386
3188.99795,1.43387
3186.93654,1.43360
3184.87514,1.43341
3182.81373,1.43384
3180.75232,1.43432
3178.69091,1.43438
3176.62951,1.43398
3174.56810,1.43298
3172.50669,1.43182
3170.44528,1.43150
3168.38387,1.43154
3166.32247,1.43115
3164.26106,1.43078
3162.19965,1.43040
3160.13824,1.42913
3158.07683,1.42708
3156.01543,1.42580
3153.95402,1.42555
3151.89261,1.42460
3149.83120,1.42244
3147.76980,1.42075
3145.70839,1.42065
3143.64698,1.42073
3141.58557,1.41989
3139.52416,1.41925
3137.46276,1.41920
3135.40135,1.41901
3133.33994,1.41882
3131.27853,1.41869
3129.21713,1.41815
3127.15572,1.41734
3125.09431,1.41698
3123.03290,1.41681
3120.97149,1.41636
3118.91009,1.41624
3116.84868,1.41651
3114.78727,1.41638
3112.72586,1.41570
3110.66445,1.41522
3108.60305,1.41555
3106.54164,1.41647
3104.48023,1.41714
3102.41882,1.41694
3100.35742,1.41629
3098.29601,1.41594
3096.23460,1.41604
3094.17319,1.41597
3092.11178,1.41582
3090.05038,1.41637
3087.98897,1.41689
3085.92756,1.41706
3083.86615,1.41739
3081.80474,1.41745
3079.74334,1.41757
3077.68193,1.41806
3075.62052,1.41809
3073.55911,1.41777
3071.49771,1.41764
3069.43630,1.41758
3067.37489,1.41812
3065.31348,1.41989
3063.25207,1.42181
3061.19067,1.42220
3059.12926,1.42144
3057.06785,1.42097
3055.00644,1.42070
3052.94503,1.42100
3050.88363,1.42271
3048.82222,1.42470
3046.76081,1.42591
3044.69940,1.42631
3042.63800,1.42622
3040.57659,1.42694
3038.51518,1.42910
3036.45377,1.43160
3034.39236,1.43355
3032.33096,1.43567
3030.26955,1.43831
3028.20814,1.44060
3026.14673,1.44239
3024.08532,1.44423
3022.02392,1.44638
3019.96251,1.44871
3017.90110,1.45074
3015.83969,1.45271
3013.77829,1.45585
3011.71688,1.46073
3009.65547,1.46650
3007.59406,1.47287
3005.53265,1.48009
3003.47125,1.48749
3001.40984,1.49586
2999.34843,1.50752
2997.28702,1.52228
2995.22561,1.53758
2993.16421,1.55208
2991.10280,1.56539
2989.04139,1.57582
2986.97998,1.58221
2984.91858,1.58541
2982.85717,1.58576
2980.79576,1.58384
2978.73435,1.58190
2976.67294,1.57987
2974.61154,1.57722
2972.55013,1.57592
2970.48872,1.57525
2968.42731,1.57276
2966.36590,1.56983
2964.30450,1.56799
2962.24309,1.56636
2960.18168,1.56575
2958.12027,1.56648
2956.05887,1.56652
2953.99746,1.56576
2951.93605,1.56533
2949.87464,1.56431
2947.81323,1.56322
2945.75183,1.56429
2943.69042,1.56584
2941.62901,1.56591
2939.56760,1.56541
2937.50619,1.56438
2935.44479,1.56280
2933.38338,1.56190
2931.32197,1.56115
2929.26056,1.56006
2927.19916,1.55997
2925.13775,1.56064
2923.07634,1.56083
2921.01493,1.55959
2918.95352,1.55756
2916.89212,1.55720
2914.83071,1.55796
2912.76930,1.55805
2910.70789,1.55919
2908.64648,1.56180
2906.58508,1.56330
2904.52367,1.56361
2902.46226,1.56418
2900.40085,1.56453
2898.33945,1.56506
2896.27804,1.56691
2894.21663,1.56919
2892.15522,1.57146
2890.09381,1.57495
2888.03241,1.57965
2885.97100,1.58470
2883.90959,1.58983
2881.84818,1.59465
2879.78677,1.59927
2877.72537,1.60282
2875.66396,1.60296
2873.60255,1.59988
2871.54114,1.59680
2869.47974,1.59557
2867.41833,1.59441
2865.35692,1.59185
2863.29551,1.58887
2861.23410,1.58583
2859.17270,1.58228
2857.11129,1.57935
2855.04988,1.57791
2852.98847,1.57667
2850.92706,1.57396
2848.86566,1.57003
2846.80425,1.56610
2844.74284,1.56168
2842.68143,1.55518
2840.62003,1.54649
2838.55862,1.53614
2836.49721,1.52435
2834.43580,1.51196
2832.37439,1.50002
2830.31299,1.48917
2828.25158,1.47969
2826.19017,1.47096
2824.12876,1.46185
2822.06735,1.45242
2820.00595,1.44398
2817.94454,1.43720
2815.88313,1.43209
2813.82172,1.42831
2811.76032,1.42522
2809.69891,1.42253
2807.63750,1.42055
2805.57609,1.41982
2803.51468,1.41987
2801.45328,1.41989
2799.39187,1.41872
2797.33046,1.41487
2795.26905,1.40896
2793.20764,1.40265
2791.14624,1.39611
2789.08483,1.38956
2787.02342,1.38397
2784.96201,1.37892
2782.90061,1.37418
2780.83920,1.37051
2778.77779,1.36725
2776.71638,1.36336
2774.65497,1.35905
2772.59357,1.35572
2770.53216,1.35411
2768.47075,1.35262
2766.40934,1.35029
2764.34793,1.34813
2762.28653,1.34678
2760.22512,1.34579
2758.16371,1.34448
2756.10230,1.34324
2754.04090,1.34254
2751.97949,1.34132
2749.91808,1.33902
2747.85667,1.33677
2745.79526,1.33530
2743.73386,1.33462
2741.67245,1.33419
2739.61104,1.33299
2737.54963,1.33145
2735.48822,1.33042
2733.42682,1.32962
2731.36541,1.32870
2729.30400,1.32770
2727.24259,1.32677
2725.18119,1.32613
2723.11978,1.32565
2721.05837,1.32504
2718.99696,1.32419
2716.93555,1.32345
2714.87415,1.32332
2712.81274,1.32354
2710.75133,1.32363
2708.68992,1.32394
2706.62851,1.32478
2704.56711,1.32528
2702.50570,1.32480
2700.44429,1.32434
2698.38288,1.32519
2696.32148,1.32666
2694.26007,1.32727
2692.19866,1.32728
2690.13725,1.32745
2688.07584,1.32791
2686.01444,1.32916
2683.95303,1.33125
2681.89162,1.33335
2679.83021,1.33516
2677.76880,1.33683
2675.70740,1.33885
2673.64599,1.34171
2671.58458,1.34484
2669.52317,1.34775
2667.46177,1.35009
2665.40036,1.35173
2663.33895,1.35351
2661.27754,1.35564
2659.21613,1.35823
2657.15473,1.36168
2655.09332,1.36541
2653.03191,1.36980
2650.97050,1.37558
2648.90909,1.38150
2646.84769,1.38699
2644.78628,1.39334
2642.72487,1.40175
2640.66346,1.41216
2638.60206,1.42391
2636.54065,1.43743
2634.47924,1.45329
2632.41783,1.46992
2630.35642,1.48496
2628.29502,1.49782
2626.23361,1.50937
2624.17220,1.52027
2622.11079,1.53014
2620.04938,1.53836
2617.98798,1.54580
2615.92657,1.55339
2613.86516,1.55978
2611.80375,1.56514
2609.74235,1.57078
2607.68094,1.57611
2605.61953,1.58069
2603.55812,1.58438
2601.49671,1.58720
2599.43531,1.58900
2597.37390,1.58963
2595.31249,1.59013
2593.25108,1.59145
2591.18967,1.59303
2589.12827,1.59338
2587.06686,1.59304
2585.00545,1.59340
2582.94404,1.59368
2580.88264,1.59346
2578.82123,1.59395
2576.75982,1.59567
2574.69841,1.59713
2572.63700,1.59760
2570.57560,1.59829
2568.51419,1.59937
2566.45278,1.60017
2564.39137,1.59984
2562.32996,1.59904
2560.26856,1.59982
2558.20715,1.60196
2556.14574,1.60398
2554.08433,1.60525
2552.02293,1.60540
2549.96152,1.60518
2547.90011,1.60602
2545.83870,1.60831
2543.77729,1.61142
2541.71589,1.61448
2539.65448,1.61782
2537.59307,1.62239
2535.53166,1.62734
2533.47025,1.63111
2531.40885,1.63408
2529.34744,1.63687
2527.28603,1.63846
2525.22462,1.63880
2523.16322,1.63894
2521.10181,1.63837
2519.04040,1.63716
2516.97899,1.63619
2514.91758,1.63357
2512.85618,1.62941
2510.79477,1.62610
2508.73336,1.62299
2506.67195,1.61968
2504.61054,1.61642
2502.54914,1.61184
2500.48773,1.60660
2498.42632,1.60285
2496.36491,1.59965
2494.30351,1.59599
2492.24210,1.59220
2490.18069,1.58733
2488.11928,1.58157
2486.05787,1.57648
2483.99647,1.57151
2481.93506,1.56499
2479.87365,1.55757
2477.81224,1.55065
2475.75083,1.54322
2473.68943,1.53325
2471.62802,1.52168
2469.56661,1.51126
2467.50520,1.50259
2465.44380,1.49460
2463.38239,1.48711
2461.32098,1.48046
2459.25957,1.47458
2457.19816,1.46889
2455.13676,1.46261
2453.07535,1.45625
2451.01394,1.45077
2448.95253,1.44596
2446.89112,1.44090
2444.82972,1.43563
2442.76831,1.43075
2440.70690,1.42609
2438.64549,1.42185
2436.58409,1.41812
2434.52268,1.41407
2432.46127,1.40964
2430.39986,1.40550
2428.33845,1.40156
2426.27705,1.39742
2424.21564,1.39314
2422.15423,1.38922
2420.09282,1.38547
2418.03141,1.38149
2415.97001,1.37749
2413.90860,1.37355
2411.84719,1.36974
2409.78578,1.36617
2407.72438,1.36293
2405.66297,1.36019
2403.60156,1.35788
2401.54015,1.35573
2399.47874,1.35348
2397.41734,1.35111
2395.35593,1.34894
2393.29452,1.34736
2391.23311,1.34627
2389.17170,1.34527
2387.11030,1.34424
2385.04889,1.34308
2382.98748,1.34189
2380.92607,1.34110
2378.86467,1.34020
2376.80326,1.33858
2374.74185,1.33675
2372.68044,1.33543
2370.61903,1.33416
2368.55763,1.33195
2366.49622,1.32952
2364.43481,1.32754
2362.37340,1.32503
2360.31199,1.32223
2358.25059,1.32124
2356.18918,1.32234
2354.12777,1.32378
2352.06636,1.32517
2350.00496,1.32590
2347.94355,1.32558
2345.88214,1.32449
2343.82073,1.32255
2341.75932,1.32010
2339.69792,1.31843
2337.63651,1.31877
2335.57510,1.32035
2333.51369,1.32195
2331.45228,1.32284
2329.39088,1.32297
2327.32947,1.32424
2325.26806,1.32714
2323.20665,1.33000
2321.14525,1.33188
2319.08384,1.33290
2317.02243,1.33382
2314.96102,1.33507
2312.89961,1.33574
2310.83821,1.33579
2308.77680,1.33618
2306.71539,1.33651
2304.65398,1.33622
2302.59257,1.33559
2300.53117,1.33469
2298.46976,1.33330
2296.40835,1.33128
2294.34694,1.32857
2292.28554,1.32590
2290.22413,1.32387
2288.16272,1.32247
2286.10131,1.32193
2284.03990,1.32181
2281.97850,1.32191
2279.91709,1.32288
2277.85568,1.32414
2275.79427,1.32478
2273.73286,1.32526
2271.67146,1.32627
2269.61005,1.32774
2267.54864,1.32942
2265.48723,1.33097
2263.42583,1.33240
2261.36442,1.33461
2259.30301,1.33767
2257.24160,1.34065
2255.18019,1.34347
2253.11879,1.34641
2251.05738,1.34973
2248.99597,1.35370
2246.93456,1.35755
2244.87315,1.36057
2242.81175,1.36295
2240.75034,1.36581
2238.68893,1.36962
2236.62752,1.37379
2234.56612,1.37782
2232.50471,1.38132
2230.44330,1.38442
2228.38189,1.38762
2226.32048,1.39138
2224.25908,1.39517
2222.19767,1.39821
2220.13626,1.40089
2218.07485,1.40335
2216.01344,1.40458
2213.95204,1.40476
2211.89063,1.40530
2209.82922,1.40630
2207.76781,1.40662
2205.70641,1.40636
2203.64500,1.40670
2201.58359,1.40752
2199.52218,1.40835
2197.46077,1.40927
2195.39937,1.41021
2193.33796,1.41148
2191.27655,1.41296
2189.21514,1.41399
2187.15373,1.41459
2185.09233,1.41521
2183.03092,1.41634
2180.96951,1.41805
2178.90810,1.41997
2176.84670,1.42221
2174.78529,1.42501
2172.72388,1.42793
2170.66247,1.43062
2168.60106,1.43414
2166.53966,1.43969
2164.47825,1.44646
2162.41684,1.45321
2160.35543,1.46087
2158.29402,1.47080
2156.23262,1.48191
2154.17121,1.49274
2152.10980,1.50339
2150.04839,1.51347
2147.98699,1.52191
2145.92558,1.52800
2143.86417,1.53209
2141.80276,1.53473
2139.74135,1.53538
2137.67995,1.53441
2135.61854,1.53257
2133.55713,1.52935
2131.49572,1.52410
2129.43431,1.51632
2127.37291,1.50625
2125.31150,1.49458
2123.25009,1.48126
2121.18868,1.46646
2119.12728,1.45145
2117.06587,1.43746
2115.00446,1.42501
2112.94305,1.41443
2110.88164,1.40590
2108.82024,1.39899
2106.75883,1.39311
2104.69742,1.38819
2102.63601,1.38429
2100.57461,1.38112
2098.51320,1.37819
2096.45179,1.37517
2094.39038,1.37261
2092.32897,1.37092
2090.26757,1.36957
2088.20616,1.36881
2086.14475,1.36873
2084.08334,1.36861
2082.02193,1.36863
2079.96053,1.36929
2077.89912,1.37047
2075.83771,1.37138
2073.77630,1.37145
2071.71490,1.37120
2069.65349,1.37128
2067.59208,1.37198
2065.53067,1.37294
2063.46926,1.37354
2061.40786,1.37390
2059.34645,1.37438
2057.28504,1.37526
2055.22363,1.37634
2053.16222,1.37718
2051.10082,1.37784
2049.03941,1.37868
2046.97800,1.37954
2044.91659,1.38036
2042.85519,1.38170
2040.79378,1.38341
2038.73237,1.38464
2036.67096,1.38586
2034.60955,1.38769
2032.54815,1.38921
2030.48674,1.38981
2028.42533,1.39000
2026.36392,1.39051
2024.30251,1.39160
2022.24111,1.39284
2020.17970,1.39384
2018.11829,1.39470
2016.05688,1.39527
2013.99548,1.39572
2011.93407,1.39641
2009.87266,1.39667
2007.81125,1.39625
2005.74984,1.39615
2003.68844,1.39666
2001.62703,1.39745
1999.56562,1.39858
1997.50421,1.39940
1995.44280,1.39989
1993.38140,1.40084
1991.31999,1.40153
1989.25858,1.40140
1987.19717,1.40094
1985.13577,1.40073
1983.07436,1.40160
1981.01295,1.40295
1978.95154,1.40368
1976.89013,1.40429
1974.82873,1.40554
1972.76732,1.40825
1970.70591,1.41358
1968.64450,1.42295
1966.58309,1.43863
1964.52169,1.46224
1962.46028,1.48673
1960.39887,1.49546
1958.33746,1.48234
1956.27606,1.46060
1954.21465,1.44302
1952.15324,1.43338
1950.09183,1.42987
1948.03042,1.42958
1945.96902,1.43146
1943.90761,1.43444
1941.84620,1.43616
1939.78479,1.43630
1937.72338,1.43732
1935.66198,1.43965
1933.60057,1.44226
1931.53916,1.44459
1929.47775,1.44664
1927.41635,1.44966
1925.35494,1.45440
1923.29353,1.45924
1921.23212,1.46313
1919.17071,1.46744
1917.10931,1.47059
1915.04790,1.47253
1912.98649,1.47631
1910.92508,1.48137
1908.86367,1.48558
1906.80227,1.48904
1904.74086,1.49279
1902.67945,1.49721
1900.61804,1.50212
1898.55664,1.50754
1896.49523,1.51381
1894.43382,1.51932
1892.37241,1.52456
1890.31100,1.53134
1888.24960,1.53690
1886.18819,1.54054
1884.12678,1.54539
1882.06537,1.55199
1880.00396,1.55930
1877.94256,1.56636
1875.88115,1.57319
1873.81974,1.57987
1871.75833,1.58738
1869.69693,1.59708
1867.63552,1.60530
1865.57411,1.61035
1863.51270,1.61593
1861.45129,1.62279
1859.38989,1.62988
1857.32848,1.63653
1855.26707,1.64276
1853.20566,1.64949
1851.14425,1.65730
1849.08285,1.66719
1847.02144,1.67928
1844.96003,1.69157
1842.89862,1.70049
1840.83722,1.70655
1838.77581,1.71416
1836.71440,1.72325
1834.65299,1.73346
1832.59158,1.74585
1830.53018,1.75911
1828.46877,1.77018
1826.40736,1.78023
1824.34595,1.78979
1822.28454,1.79755
1820.22314,1.80729
1818.16173,1.82013
1816.10032,1.83415
1814.03891,1.84989
1811.97751,1.86900
1809.91610,1.88892
1807.85469,1.90673
1805.79328,1.92469
1803.73187,1.94312
1801.67047,1.95514
1799.60906,1.94972
1797.54765,1.93030
1795.48624,1.90927
1793.42483,1.88820
1791.36343,1.86639
1789.30202,1.85189
1787.24061,1.84790
1785.17920,1.85046
1783.11780,1.85529
1781.05639,1.85977
1778.99498,1.86087
1776.93357,1.86154
1774.87216,1.86784
1772.81076,1.87919
1770.74935,1.88757
1768.68794,1.89196
1766.62653,1.89625
1764.56512,1.90162
1762.50372,1.90887
1760.44231,1.91494
1758.38090,1.91953
1756.31949,1.92591
1754.25809,1.93513
1752.19668,1.94709
1750.13527,1.95664
1748.07386,1.96094
1746.01245,1.96544
1743.95105,1.97105
1741.88964,1.97682
1739.82823,1.98127
1737.76682,1.98387
1735.70541,1.98908
1733.64401,1.99914
1731.58260,2.00440
1729.52119,2.00439
1727.45978,2.00546
1725.39838,2.01042
1723.33697,2.01675
1721.27556,2.02317
1719.21415,2.03370
1717.15274,2.04368
1715.09134,2.04408
1713.02993,2.04288
1710.96852,2.04712
1708.90711,2.05540
1706.84570,2.06572
1704.78430,2.07491
1702.72289,2.08412
1700.66148,2.09760
1698.60007,2.10938
1696.53867,2.11466
1694.47726,2.11934
1692.41585,2.12837
1690.35444,2.14225
1688.29303,2.15609
1686.23163,2.16848
1684.17022,2.18548
1682.10881,2.19328
1680.04740,2.19629
1677.98599,2.20342
1675.92459,2.21614
1673.86318,2.22807
1671.80177,2.23660
1669.74036,2.24775
1667.67896,2.26301
1665.61755,2.28023
1663.55614,2.29723
1661.49473,2.31332
1659.43332,2.32360
1657.37192,2.33494
1655.31051,2.35116
1653.24910,2.37523
1651.18769,2.38778
1649.12628,2.40195
1647.06488,2.42289
1645.00347,2.43735
1642.94206,2.45020
1640.88065,2.46336
1638.81925,2.47857
1636.75784,2.48952
1634.69643,2.49607
1632.63502,2.51439
1630.57361,2.54341
1628.51221,2.55142
1626.45080,2.55247
1624.38939,2.56834
1622.32798,2.58507
1620.26657,2.59150
1618.20517,2.59389
1616.14376,2.57102
1614.08235,2.52956
1612.02094,2.51156
1609.95954,2.49745
1607.89813,2.47020
1605.83672,2.43591
1603.77531,2.40884
1601.71390,2.36814
1599.65250,2.32394
1597.59109,2.28217
1595.52968,2.24276
1593.46827,2.20626
1591.40686,2.16369
1589.34546,2.11319
1587.28405,2.06000
1585.22264,2.00947
1583.16123,1.95437
1581.09983,1.89872
1579.03842,1.84691
1576.97701,1.78332
1574.91560,1.69750
1572.85419,1.63104
1570.79279,1.56764
1568.73138,1.48687
1566.66997,1.41153
1564.60856,1.34257
1562.54715,1.28645
1560.48575,1.22892
1558.42434,1.11252
1556.36293,1.01049
1554.30152,0.93781
1552.24012,0.86667
1550.17871,0.79717
1548.11730,0.73528
1546.05589,0.68909
1543.99448,0.65177
1541.93308,0.61800
1539.87167,0.57722
1537.81026,0.54459
1535.74885,0.53098
1533.68744,0.52117
1531.62604,0.50925
1529.56463,0.50221
1527.50322,0.49991
1525.44181,0.49805
1523.38041,0.49672
1521.31900,0.49451
1519.25759,0.49063
1517.19618,0.48798
1515.13477,0.48488
1513.07337,0.48302
1511.01196,0.48630
1508.95055,0.49376
1506.88914,0.49578
1504.82773,0.48583
1502.76633,0.48124
1500.70492,0.48297
1498.64351,0.48666
1496.58210,0.48778
1494.52070,0.48689
1492.45929,0.49005
1490.39788,0.49698
1488.33647,0.49950
1486.27506,0.49673
1484.21366,0.49597
1482.15225,0.49822
1480.09084,0.50145
1478.02943,0.50561
1475.96802,0.51196
1473.90662,0.51822
1471.84521,0.51908
1469.78380,0.51679
1467.72239,0.51802
1465.66099,0.52237
1463.59958,0.52543
1461.53817,0.52859
1459.47676,0.53590
1457.41535,0.54429
1455.35395,0.54405
1453.29254,0.54207
1451.23113,0.54349
1449.16972,0.54709
1447.10831,0.54994
1445.04691,0.55098
1442.98550,0.55249
1440.92409,0.55532
1438.86268,0.55959
1436.80128,0.56304
1434.73987,0.56203
1432.67846,0.56090
1430.61705,0.56172
1428.55564,0.56192
1426.49424,0.56262
1424.43283,0.56473
1422.37142,0.56669
1420.31001,0.56948
1418.24860,0.57104
1416.18720,0.56850
1414.12579,0.56686
1412.06438,0.56812
1410.00297,0.57133
1407.94157,0.57803
1405.88016,0.59089
1403.81875,0.60743
1401.75734,0.62284
1399.69593,0.63819
1397.63453,0.65341
1395.57312,0.66873
1393.51171,0.68504
1391.45030,0.70135
1389.38889,0.72034
1387.32749,0.74192
1385.26608,0.75997
1383.20467,0.77490
1381.14326,0.79046
1379.08186,0.80596
1377.02045,0.82106
1374.95904,0.83610
1372.89763,0.84844
1370.83622,0.85792
1368.77482,0.86806
1366.71341,0.87859
1364.65200,0.89016
1362.59059,0.90218
1360.52918,0.91031
1358.46778,0.91666
1356.40637,0.92456
1354.34496,0.93291
1352.28355,0.94059
1350.22215,0.94806
1348.16074,0.95515
1346.09933,0.96215
1344.03792,0.96953
1341.97651,0.97827
1339.91511,0.98753
1337.85370,0.99369
1335.79229,0.99678
1333.73088,1.00043
1331.66947,1.00553
1329.60807,1.01101
1327.54666,1.01614
1325.48525,1.02079
1323.42384,1.02593
1321.36244,1.03188
1319.30103,1.03774
1317.23962,1.04222
1315.17821,1.04611
1313.11680,1.04994
1311.05540,1.05319
1308.99399,1.05611
1306.93258,1.05887
1304.87117,1.06142
1302.80976,1.06434
1300.74836,1.06782
1298.68695,1.07119
1296.62554,1.07430
1294.56413,1.07739
1292.50273,1.08104
1290.44132,1.08508
1288.37991,1.08907
1286.31850,1.09266
1284.25709,1.09572
1282.19569,1.09841
1280.13428,1.10088
1278.07287,1.10342
1276.01146,1.10638
1273.95005,1.10968
1271.88865,1.11298
1269.82724,1.11625
1267.76583,1.11954
1265.70442,1.12280
1263.64302,1.12549
1261.58161,1.12750
1259.52020,1.12922
1257.45879,1.13099
1255.39738,1.13284
1253.33598,1.13494
1251.27457,1.13731
1249.21316,1.13990
1247.15175,1.14278
1245.09034,1.14558
1243.02894,1.14837
1240.96753,1.15124
1238.90612,1.15342
1236.84471,1.15484
1234.78331,1.15652
1232.72190,1.15852
1230.66049,1.16078
1228.59908,1.16330
1226.53767,1.16541
1224.47627,1.16681
1222.41486,1.16790
1220.35345,1.16954
1218.29204,1.17181
1216.23063,1.17396
1214.16923,1.17610
1212.10782,1.17879
1210.04641,1.18155
1207.98500,1.18382
1205.92360,1.18600
1203.86219,1.18822
1201.80078,1.19024
1199.73937,1.19229
1197.67796,1.19473
1195.61656,1.19765
1193.55515,1.20032
1191.49374,1.20232
1189.43233,1.20434
1187.37092,1.20666
1185.30952,1.20901
1183.24811,1.21139
1181.18670,1.21347
1179.12529,1.21483
1177.06389,1.21571
1175.00248,1.21627
1172.94107,1.21680
1170.87966,1.21798
1168.81825,1.21971
1166.75685,1.22117
1164.69544,1.22207
1162.63403,1.22215
1160.57262,1.22140
1158.51121,1.22056
1156.44981,1.21980
1154.38840,1.21893
1152.32699,1.21847
1150.26558,1.21824
1148.20418,1.21744
1146.14277,1.21636
1144.08136,1.21542
1142.01995,1.21491
1139.95854,1.21493
1137.89714,1.21503
1135.83573,1.21533
1133.77432,1.21605
1131.71291,1.21691
1129.65150,1.21828
1127.59010,1.21972
1125.52869,1.22020
1123.46728,1.22037
1121.40587,1.22076
1119.34447,1.22157
1117.28306,1.22313
1115.22165,1.22495
1113.16024,1.22652
1111.09883,1.22800
1109.03743,1.22946
1106.97602,1.23090
1104.91461,1.23234
1102.85320,1.23406
1100.79179,1.23603
1098.73039,1.23787
1096.66898,1.23997
1094.60757,1.24268
1092.54616,1.24583
1090.48476,1.24904
1088.42335,1.25158
1086.36194,1.25298
1084.30053,1.25317
1082.23912,1.25243
1080.17772,1.25177
1078.11631,1.25184
1076.05490,1.25248
1073.99349,1.25348
1071.93208,1.25497
1069.87068,1.25697
1067.80927,1.25860
1065.74786,1.25915
1063.68645,1.25905
1061.62505,1.25929
1059.56364,1.26026
1057.50223,1.26157
1055.44082,1.26302
1053.37941,1.26487
1051.31801,1.26645
1049.25660,1.26739
1047.19519,1.26870
1045.13378,1.27027
1043.07238,1.27136
1041.01097,1.27262
1038.94956,1.27411
1036.88815,1.27510
1034.82674,1.27647
1032.76534,1.27881
1030.70393,1.28111
1028.64252,1.28298
1026.58111,1.28444
1024.51970,1.28583
1022.45830,1.28773
1020.39689,1.28915
1018.33548,1.29004
1016.27407,1.29184
1014.21267,1.29361
1012.15126,1.29352
1010.08985,1.29261
1008.02844,1.29275
1005.96703,1.29338
1003.90563,1.29341
1001.84422,1.29310
999.78281,1.29331
997.72140,1.29427
995.65999,1.29538
993.59859,1.29643
991.53718,1.29769
989.47577,1.29852
987.41436,1.29879
985.35296,1.29910
983.29155,1.29958
981.23014,1.30053
979.16873,1.30133
977.10732,1.30125
975.04592,1.30118
972.98451,1.30145
970.92310,1.30156
968.86169,1.30209
966.80028,1.30355
964.73888,1.30550
962.67747,1.30746
960.61606,1.30942
958.55465,1.31169
956.49325,1.31438
954.43184,1.31686
952.37043,1.31887
950.30902,1.32116
948.24761,1.32390
946.18621,1.32616
944.12480,1.32752
942.06339,1.32930
940.00198,1.33165
937.94057,1.33312
935.87917,1.33393
933.81776,1.33533
931.75635,1.33706
929.69494,1.33809
927.63354,1.33786
925.57213,1.33679
923.51072,1.33658
921.44931,1.33855
919.38790,1.34233
917.32650,1.34598
915.26509,1.34892
913.20368,1.35215
911.14227,1.35579
909.08086,1.36033
907.01946,1.36667
904.95805,1.37499
902.89664,1.38531
900.83523,1.39735
898.77383,1.41206
896.71242,1.43193
894.65101,1.46115
892.58960,1.50540
890.52819,1.56624
888.46679,1.59704
886.40538,1.49916
884.34397,1.32900
882.28256,1.19185
880.22115,1.09839
878.15975,1.03709
876.09834,1.00296
874.03693,0.99012
871.97552,0.99814
869.91412,1.02946
867.85271,1.07597
865.79130,1.12079
863.72989,1.15442
861.66848,1.17841
859.60708,1.19672
857.54567,1.21144
855.48426,1.22388
853.42285,1.23611
851.36144,1.24948
849.30004,1.25914
847.23863,1.25985
845.17722,1.25738
843.11581,1.25854
841.05441,1.26309
838.99300,1.26813
836.93159,1.27210
834.87018,1.27598
832.80877,1.28029
830.74737,1.28457
828.68596,1.28833
826.62455,1.29045
824.56314,1.29166
822.50173,1.29417
820.44033,1.29751
818.37892,1.30115
816.31751,1.30506
814.25610,1.30799
812.19470,1.31005
810.13329,1.31241
808.07188,1.31573
806.01047,1.31938
803.94906,1.32151
801.88766,1.32263
799.82625,1.32492
797.76484,1.32815
795.70343,1.33157
793.64202,1.33432
791.58062,1.33626
789.51921,1.33838
787.45780,1.34022
785.39639,1.34183
783.33499,1.34342
781.27358,1.34438
779.21217,1.34587
777.15076,1.34888
775.08935,1.35186
773.02795,1.35347
770.96654,1.35388
768.90513,1.35339
766.84372,1.35283
764.78231,1.35373
762.72091,1.35615
760.65950,1.35862
758.59809,1.36029
756.53668,1.36201
754.47528,1.36418
752.41387,1.36638
750.35246,1.36874
748.29105,1.37160
746.22964,1.37530
744.16824,1.37968
742.10683,1.38487
740.04542,1.39108
737.98401,1.39751
735.92260,1.40462
733.86120,1.41299
731.79979,1.41968
729.73838,1.42660
727.67697,1.44023
725.61557,1.45926
723.55416,1.48039
721.49275,1.50661
719.43134,1.54050
717.36993,1.55657
715.30853,1.48924
713.24712,1.35572
711.18571,1.25913
709.12430,1.23745
707.06289,1.26112
705.00149,1.29006
702.94008,1.31056
700.87867,1.32542
698.81726,1.33642
696.75586,1.34499
694.69445,1.35116
692.63304,1.35441
690.57163,1.35789
688.51022,1.36221
686.44882,1.36660
684.38741,1.37154
682.32600,1.37467
680.26459,1.37571
678.20318,1.37726
676.14178,1.38021
674.08037,1.38431
672.01896,1.38891
669.95755,1.39245
667.89615,1.39416
665.83474,1.39723
663.77333,1.40122
661.71192,1.40406
659.65051,1.40691
657.58911,1.41184
655.52770,1.41753
653.46629,1.42018
651.40488,1.42093
649.34347,1.42480
647.28207,1.42993
645.22066,1.43203
643.15925,1.43388
641.09784,1.43802
639.03644,1.44211
636.97503,1.44500
634.91362,1.44798
632.85221,1.44984
630.79080,1.44940
628.72940,1.45067
626.66799,1.45494
624.60658,1.45750
622.54517,1.45896
620.48376,1.46285
618.42236,1.46718
616.36095,1.47072
614.29954,1.47487
612.23813,1.47766
610.17673,1.47854
608.11532,1.48227
606.05391,1.48670
603.99250,1.48656
601.93109,1.48708
599.86969,1.49243
597.80828,1.49910
595.74687,1.50404
593.68546,1.50630
591.62405,1.50750
589.56265,1.51156
587.50124,1.51743
585.43983,1.52121
583.37842,1.52536
581.31702,1.53418
579.25561,1.54310
577.19420,1.54393
575.13279,1.53855
573.07138,1.53647
571.00998,1.54113
568.94857,1.54569
566.88716,1.54505
564.82575,1.54520
562.76434,1.55115
560.70294,1.55940
558.64153,1.56580
556.58012,1.57137
554.51871,1.57594
552.45731,1.57788
550.39590,1.58085
548.33449,1.58899
546.27308,1.59863
544.21167,1.60253
542.15027,1.60400
540.08886,1.60969
538.02745,1.61644
535.96604,1.62001
533.90463,1.62233
531.84323,1.62744
529.78182,1.63888
527.72041,1.65219
525.65900,1.65950
523.59760,1.66534
521.53619,1.67475
519.47478,1.68236
517.41337,1.68405
515.35196,1.68563
513.29056,1.69683
511.22915,1.71421
509.16774,1.72717
507.10633,1.74000
505.04492,1.75365
502.98352,1.76035
500.92211,1.76662
498.86070,1.77695
496.79929,1.78998
494.73789,1.80395
492.67648,1.81310
490.61507,1.82312
488.55366,1.84098
486.49225,1.85524
484.43085,1.85400
482.36944,1.84867
480.30803,1.86117
478.24662,1.88527
476.18521,1.91045
474.12381,1.94195
472.06240,1.97546
470.00099,1.99903
467.93958,2.00958
465.87818,2.00532
463.81677,2.00035
461.75536,2.01483
459.69395,2.04115
457.63254,2.06325
455.57114,2.08518
453.50973,2.11901
451.44832,2.15804
449.38691,2.20574
447.32550,2.23410
445.26410,2.22292
443.20269,2.26067
441.14128,2.36574
439.07987,2.39420
437.01847,2.33527
434.95706,2.33609
432.89565,2.40617
430.83424,2.49844
428.77283,2.49751
426.71143,2.40918
424.65002,2.36270
422.58861,2.38349
420.52720,2.31010
418.46579,2.20708
416.40439,2.12777
414.34298,2.07766
412.28157,2.01096
410.22016,1.92282
408.15876,1.82445
406.09735,1.71167
404.03594,1.60134
401.97453,1.50525
399.91312,1.41548
