3997.06983,1.48731
3995.00842,1.48724
3992.94702,1.48617
3990.88561,1.48309
3988.82420,1.48082
3986.76279,1.48069
3984.70139,1.48144
3982.63998,1.48176
3980.57857,1.48218
3978.51716,1.48283
3976.45575,1.48231
3974.39435,1.48111
3972.33294,1.48116
3970.27153,1.48196
3968.21012,1.48164
3966.14871,1.48084
3964.08731,1.48187
3962.02590,1.48426
3959.96449,1.48489
3957.90308,1.48372
3955.84168,1.48375
3953.78027,1.48598
3951.71886,1.48824
3949.65745,1.48861
3947.59604,1.48730
3945.53464,1.48641
3943.47323,1.48741
3941.41182,1.48918
3939.35041,1.49002
3937.28900,1.49053
3935.22760,1.49124
3933.16619,1.49026
3931.10478,1.48708
3929.04337,1.48425
3926.98197,1.48312
3924.92056,1.48343
3922.85915,1.48360
3920.79774,1.48326
3918.73633,1.48308
3916.67493,1.48230
3914.61352,1.48150
3912.55211,1.48125
3910.49070,1.48055
3908.42929,1.48018
3906.36789,1.48136
3904.30648,1.48243
3902.24507,1.48141
3900.18366,1.48037
3898.12226,1.48046
3896.06085,1.48181
3893.99944,1.48376
3891.93803,1.48395
3889.87662,1.48372
3887.81522,1.48619
3885.75381,1.48782
3883.69240,1.48507
3881.63099,1.48274
3879.56958,1.48256
3877.50818,1.48316
3875.44677,1.48414
3873.38536,1.48473
3871.32395,1.48346
3869.26255,1.47879
3867.20114,1.47610
3865.13973,1.47753
3863.07832,1.47978
3861.01691,1.48144
3858.95551,1.48299
3856.89410,1.48594
3854.83269,1.48904
3852.77128,1.48353
3850.70987,1.47658
3848.64847,1.47826
3846.58706,1.48317
3844.52565,1.48719
3842.46424,1.48974
3840.40284,1.49066
3838.34143,1.48942
3836.28002,1.48677
3834.21861,1.48419
3832.15720,1.48242
3830.09580,1.48260
3828.03439,1.48384
3825.97298,1.48440
3823.91157,1.48627
3821.85016,1.48841
3819.78876,1.48625
3817.72735,1.48440
3815.66594,1.48380
3813.60453,1.48479
3811.54313,1.48954
3809.48172,1.49494
3807.42031,1.49664
3805.35890,1.49548
3803.29749,1.49540
3801.23609,1.49301
3799.17468,1.49090
3797.11327,1.49343
3795.05186,1.49521
3792.99045,1.49540
3790.92905,1.49667
3788.86764,1.49802
3786.80623,1.49854
3784.74482,1.49874
3782.68342,1.49950
3780.62201,1.50084
3778.56060,1.50182
3776.49919,1.50407
3774.43778,1.50749
3772.37638,1.50989
3770.31497,1.51149
3768.25356,1.51321
3766.19215,1.51473
3764.13074,1.51589
3762.06934,1.51823
3760.00793,1.52151
3757.94652,1.52271
3755.88511,1.52393
3753.82371,1.52807
3751.76230,1.53074
3749.70089,1.52838
3747.63948,1.52869
3745.57807,1.53143
3743.51667,1.53138
3741.45526,1.53336
3739.39385,1.53889
3737.33244,1.54348
3735.27103,1.54537
3733.20963,1.54675
3731.14822,1.54967
3729.08681,1.55387
3727.02540,1.55669
3724.96400,1.55650
3722.90259,1.55709
3720.84118,1.56123
3718.77977,1.56655
3716.71836,1.57089
3714.65696,1.57472
3712.59555,1.57816
3710.53414,1.57964
3708.47273,1.58165
3706.41132,1.58586
3704.34992,1.59001
3702.28851,1.59348
3700.22710,1.59802
3698.16569,1.60317
3696.10429,1.60715
3694.04288,1.61121
3691.98147,1.61655
3689.92006,1.62182
3687.85865,1.62663
3685.79725,1.63235
3683.73584,1.63832
3681.67443,1.64339
3679.61302,1.64780
3677.55161,1.65288
3675.49021,1.65593
3673.42880,1.65685
3671.36739,1.66143
3669.30598,1.66591
3667.24458,1.66762
3665.18317,1.67000
3663.12176,1.67362
3661.06035,1.67883
3658.99894,1.68552
3656.93754,1.69031
3654.87613,1.69180
3652.81472,1.69537
3650.75331,1.70101
3648.69190,1.70386
3646.63050,1.70541
3644.56909,1.70816
3642.50768,1.71162
3640.44627,1.71595
3638.38487,1.72040
3636.32346,1.72233
3634.26205,1.72226
3632.20064,1.72443
3630.13923,1.72918
3628.07783,1.73120
3626.01642,1.73358
3623.95501,1.74054
3621.89360,1.74754
3619.83219,1.74939
3617.77079,1.74697
3615.70938,1.74812
3613.64797,1.75199
3611.58656,1.75373
3609.52516,1.75391
3607.46375,1.75245
3605.40234,1.75128
3603.34093,1.75409
3601.27952,1.75880
3599.21812,1.76155
3597.15671,1.76250
3595.09530,1.76332
3593.03389,1.76482
3590.97248,1.76762
3588.91108,1.77049
3586.84967,1.76971
3584.78826,1.76779
3582.72685,1.76888
3580.66545,1.77065
3578.60404,1.77303
3576.54263,1.77782
3574.48122,1.78079
3572.41981,1.78042
3570.35841,1.78201
3568.29700,1.78249
3566.23559,1.77704
3564.17418,1.77582
3562.11277,1.77855
3560.05137,1.77795
3557.98996,1.77547
3555.92855,1.77426
3553.86714,1.77533
3551.80574,1.77738
3549.74433,1.77821
3547.68292,1.77870
3545.62151,1.77873
3543.56010,1.77762
3541.49870,1.77615
3539.43729,1.77345
3537.37588,1.76834
3535.31447,1.76382
3533.25306,1.76545
3531.19166,1.77103
3529.13025,1.77268
3527.06884,1.77067
3525.00743,1.77065
3522.94603,1.77154
3520.88462,1.77020
3518.82321,1.76770
3516.76180,1.76662
3514.70039,1.76765
3512.63899,1.76984
3510.57758,1.77296
3508.51617,1.77514
3506.45476,1.77504
3504.39335,1.77490
3502.33195,1.77462
3500.27054,1.77451
3498.20913,1.77446
3496.14772,1.77223
3494.08632,1.76993
3492.02491,1.76937
3489.96350,1.76886
3487.90209,1.76784
3485.84068,1.76787
3483.77928,1.76859
3481.71787,1.76828
3479.65646,1.76781
3477.59505,1.76806
3475.53364,1.76936
3473.47224,1.77091
3471.41083,1.77012
3469.34942,1.76911
3467.28801,1.77100
3465.22661,1.77329
3463.16520,1.77536
3461.10379,1.77818
3459.04238,1.77967
3456.98097,1.77761
3454.91957,1.77339
3452.85816,1.77220
3450.79675,1.77370
3448.73534,1.77351
3446.67393,1.77144
3444.61253,1.76839
3442.55112,1.76599
3440.48971,1.76496
3438.42830,1.76299
3436.36690,1.75929
3434.30549,1.75454
3432.24408,1.74874
3430.18267,1.74205
3428.12126,1.73555
3426.05986,1.73012
3423.99845,1.72497
3421.93704,1.71826
3419.87563,1.70973
3417.81422,1.70088
3415.75282,1.69326
3413.69141,1.68739
3411.63000,1.68203
3409.56859,1.67706
3407.50719,1.67361
3405.44578,1.67093
3403.38437,1.66812
3401.32296,1.66657
3399.26155,1.66690
3397.20015,1.66745
3395.13874,1.66802
3393.07733,1.66991
3391.01592,1.67280
3388.95451,1.67541
3386.89311,1.67707
3384.83170,1.67768
3382.77029,1.67851
3380.70888,1.68139
3378.64748,1.68528
3376.58607,1.68706
3374.52466,1.68768
3372.46325,1.68865
3370.40184,1.68863
3368.34044,1.68885
3366.27903,1.69076
3364.21762,1.69343
3362.15621,1.69572
3360.09480,1.69547
3358.03340,1.69325
3355.97199,1.69242
3353.91058,1.69395
3351.84917,1.69684
3349.78777,1.69880
3347.72636,1.69923
3345.66495,1.69962
3343.60354,1.70045
3341.54213,1.70093
3339.48073,1.70030
3337.41932,1.69956
3335.35791,1.69910
3333.29650,1.69864
3331.23509,1.69864
3329.17369,1.69939
3327.11228,1.69986
3325.05087,1.69897
3322.98946,1.69833
3320.92806,1.69904
3318.86665,1.69948
3316.80524,1.69912
3314.74383,1.69911
3312.68242,1.69980
3310.62102,1.70088
3308.55961,1.70199
3306.49820,1.70236
3304.43679,1.70156
3302.37538,1.70150
3300.31398,1.70276
3298.25257,1.70280
3296.19116,1.70122
3294.12975,1.69979
3292.06835,1.69832
3290.00694,1.69733
3287.94553,1.69907
3285.88412,1.70086
3283.82271,1.69983
3281.76131,1.69832
3279.69990,1.69844
3277.63849,1.70028
3275.57708,1.70181
3273.51567,1.70101
3271.45427,1.69971
3269.39286,1.69925
3267.33145,1.69822
3265.27004,1.69836
3263.20864,1.70068
3261.14723,1.70116
3259.08582,1.69951
3257.02441,1.69873
3254.96300,1.69938
3252.90160,1.70110
3250.84019,1.70220
3248.77878,1.70087
3246.71737,1.69840
3244.65596,1.69672
3242.59456,1.69614
3240.53315,1.69648
3238.47174,1.69647
3236.41033,1.69466
3234.34893,1.69348
3232.28752,1.69560
3230.22611,1.69826
3228.16470,1.69795
3226.10329,1.69487
3224.04189,1.69146
3221.98048,1.68972
3219.91907,1.68925
3217.85766,1.68893
3215.79625,1.68782
3213.73485,1.68538
3211.67344,1.68363
3209.61203,1.68438
3207.55062,1.68511
3205.48922,1.68394
3203.42781,1.68330
3201.36640,1.68453
3199.30499,1.68526
3197.24358,1.68477
3195.18218,1.68535
3193.12077,1.68588
3191.05936,1.68332
3188.99795,1.67889
3186.93654,1.67643
3184.87514,1.67619
3182.81373,1.67556
3180.75232,1.67442
3178.69091,1.67322
3176.62951,1.67319
3174.56810,1.67464
3172.50669,1.67457
3170.44528,1.67285
3168.38387,1.67124
3166.32247,1.66949
3164.26106,1.66785
3162.19965,1.66662
3160.13824,1.66527
3158.07683,1.66404
3156.01543,1.66354
3153.95402,1.66281
3151.89261,1.66124
3149.83120,1.65980
3147.76980,1.65809
3145.70839,1.65546
3143.64698,1.65375
3141.58557,1.65391
3139.52416,1.65400
3137.46276,1.65282
3135.40135,1.65185
3133.33994,1.65188
3131.27853,1.65116
3129.21713,1.64893
3127.15572,1.64689
3125.09431,1.64614
3123.03290,1.64543
3120.97149,1.64363
3118.91009,1.64163
3116.84868,1.64056
3114.78727,1.64020
3112.72586,1.63954
3110.66445,1.63841
3108.60305,1.63758
3106.54164,1.63773
3104.48023,1.63856
3102.41882,1.63901
3100.35742,1.63788
3098.29601,1.63538
3096.23460,1.63345
3094.17319,1.63282
3092.11178,1.63184
3090.05038,1.63007
3087.98897,1.62867
3085.92756,1.62746
3083.86615,1.62643
3081.80474,1.62637
3079.74334,1.62668
3077.68193,1.62571
3075.62052,1.62338
3073.55911,1.62163
3071.49771,1.62076
3069.43630,1.61979
3067.37489,1.61952
3065.31348,1.61977
3063.25207,1.61910
3061.19067,1.61795
3059.12926,1.61708
3057.06785,1.61656
3055.00644,1.61590
3052.94503,1.61456
3050.88363,1.61350
3048.82222,1.61281
3046.76081,1.61127
3044.69940,1.60971
3042.63800,1.60922
3040.57659,1.60897
3038.51518,1.60793
3036.45377,1.60601
3034.39236,1.60506
3032.33096,1.60574
3030.26955,1.60655
3028.20814,1.60688
3026.14673,1.60684
3024.08532,1.60616
3022.02392,1.60499
3019.96251,1.60464
3017.90110,1.60484
3015.83969,1.60450
3013.77829,1.60451
3011.71688,1.60534
3009.65547,1.60633
3007.59406,1.60705
3005.53265,1.60809
3003.47125,1.61130
3001.40984,1.61665
2999.34843,1.62251
2997.28702,1.62916
2995.22561,1.63755
2993.16421,1.64741
2991.10280,1.65684
2989.04139,1.66425
2986.97998,1.66924
2984.91858,1.67118
2982.85717,1.67095
2980.79576,1.67029
2978.73435,1.66871
2976.67294,1.66587
2974.61154,1.66337
2972.55013,1.66205
2970.48872,1.66084
2968.42731,1.65921
2966.36590,1.65842
2964.30450,1.65761
2962.24309,1.65470
2960.18168,1.65129
2958.12027,1.64975
2956.05887,1.64934
2953.99746,1.64915
2951.93605,1.64949
2949.87464,1.64943
2947.81323,1.64805
2945.75183,1.64651
2943.69042,1.64606
2941.62901,1.64664
2939.56760,1.64794
2937.50619,1.64870
2935.44479,1.64797
2933.38338,1.64638
2931.32197,1.64455
2929.26056,1.64396
2927.19916,1.64457
2925.13775,1.64404
2923.07634,1.64254
2921.01493,1.64175
2918.95352,1.64168
2916.89212,1.64232
2914.83071,1.64288
2912.76930,1.64197
2910.70789,1.64147
2908.64648,1.64368
2906.58508,1.64668
2904.52367,1.64786
2902.46226,1.64761
2900.40085,1.64713
2898.33945,1.64746
2896.27804,1.64907
2894.21663,1.65136
2892.15522,1.65381
2890.09381,1.65650
2888.03241,1.65982
2885.97100,1.66492
2883.90959,1.67193
2881.84818,1.67833
2879.78677,1.68295
2877.72537,1.68599
2875.66396,1.68648
2873.60255,1.68471
2871.54114,1.68256
2869.47974,1.68098
2867.41833,1.67990
2865.35692,1.67835
2863.29551,1.67432
2861.23410,1.66847
2859.17270,1.66415
2857.11129,1.66204
2855.04988,1.65992
2852.98847,1.65667
2850.92706,1.65304
2848.86566,1.64872
2846.80425,1.64330
2844.74284,1.63773
2842.68143,1.63136
2840.62003,1.62281
2838.55862,1.61246
2836.49721,1.60119
2834.43580,1.58992
2832.37439,1.57981
2830.31299,1.57088
2828.25158,1.56254
2826.19017,1.55469
2824.12876,1.54836
2822.06735,1.54355
2820.00595,1.53914
2817.94454,1.53572
2815.88313,1.53269
2813.82172,1.52868
2811.76032,1.52515
2809.69891,1.52338
2807.63750,1.52216
2805.57609,1.52118
2803.51468,1.52148
2801.45328,1.52213
2799.39187,1.52092
2797.33046,1.51728
2795.26905,1.51287
2793.20764,1.50878
2791.14624,1.50508
2789.08483,1.50167
2787.02342,1.49852
2784.96201,1.49590
2782.90061,1.49358
2780.83920,1.49095
2778.77779,1.48836
2776.71638,1.48641
2774.65497,1.48478
2772.59357,1.48348
2770.53216,1.48240
2768.47075,1.48064
2766.40934,1.47829
2764.34793,1.47618
2762.28653,1.47440
2760.22512,1.47304
2758.16371,1.47219
2756.10230,1.47121
2754.04090,1.46987
2751.97949,1.46859
2749.91808,1.46787
2747.85667,1.46719
2745.79526,1.46606
2743.73386,1.46542
2741.67245,1.46501
2739.61104,1.46384
2737.54963,1.46259
2735.48822,1.46175
2733.42682,1.46113
2731.36541,1.46015
2729.30400,1.45915
2727.24259,1.45903
2725.18119,1.45868
2723.11978,1.45763
2721.05837,1.45656
2718.99696,1.45583
2716.93555,1.45570
2714.87415,1.45547
2712.81274,1.45488
2710.75133,1.45479
2708.68992,1.45498
2706.62851,1.45457
2704.56711,1.45398
2702.50570,1.45385
2700.44429,1.45434
2698.38288,1.45552
2696.32148,1.45630
2694.26007,1.45628
2692.19866,1.45623
2690.13725,1.45646
2688.07584,1.45710
2686.01444,1.45801
2683.95303,1.45890
2681.89162,1.45967
2679.83021,1.46100
2677.76880,1.46271
2675.70740,1.46418
2673.64599,1.46618
2671.58458,1.46844
2669.52317,1.47036
2667.46177,1.47193
2665.40036,1.47308
2663.33895,1.47477
2661.27754,1.47749
2659.21613,1.48054
2657.15473,1.48294
2655.09332,1.48474
2653.03191,1.48704
2650.97050,1.49007
2648.90909,1.49324
2646.84769,1.49636
2644.78628,1.49997
2642.72487,1.50501
2640.66346,1.51190
2638.60206,1.52022
2636.54065,1.52957
2634.47924,1.53992
2632.41783,1.55089
2630.35642,1.56101
2628.29502,1.56968
2626.23361,1.57890
2624.17220,1.58914
2622.11079,1.59809
2620.04938,1.60540
2617.98798,1.61297
2615.92657,1.62061
2613.86516,1.62646
2611.80375,1.63164
2609.74235,1.63780
2607.68094,1.64356
2605.61953,1.64810
2603.55812,1.65190
2601.49671,1.65497
2599.43531,1.65756
2597.37390,1.66004
2595.31249,1.66183
2593.25108,1.66311
2591.18967,1.66466
2589.12827,1.66567
2587.06686,1.66579
2585.00545,1.66564
2582.94404,1.66604
2580.88264,1.66738
2578.82123,1.66883
2576.75982,1.66963
2574.69841,1.66964
2572.63700,1.66914
2570.57560,1.66880
2568.51419,1.66969
2566.45278,1.67191
2564.39137,1.67396
2562.32996,1.67551
2560.26856,1.67704
2558.20715,1.67796
2556.14574,1.67835
2554.08433,1.67910
2552.02293,1.68122
2549.96152,1.68401
2547.90011,1.68560
2545.83870,1.68684
2543.77729,1.68837
2541.71589,1.69027
2539.65448,1.69439
2537.59307,1.70135
2535.53166,1.70918
2533.47025,1.71532
2531.40885,1.71972
2529.34744,1.72394
2527.28603,1.72710
2525.22462,1.72836
2523.16322,1.72814
2521.10181,1.72634
2519.04040,1.72472
2516.97899,1.72509
2514.91758,1.72608
2512.85618,1.72538
2510.79477,1.72212
2508.73336,1.71788
2506.67195,1.71404
2504.61054,1.71048
2502.54914,1.70652
2500.48773,1.70107
2498.42632,1.69457
2496.36491,1.68782
2494.30351,1.68082
2492.24210,1.67426
2490.18069,1.66829
2488.11928,1.66186
2486.05787,1.65521
2483.99647,1.64915
2481.93506,1.64285
2479.87365,1.63592
2477.81224,1.62817
2475.75083,1.61966
2473.68943,1.61128
2471.62802,1.60269
2469.56661,1.59420
2467.50520,1.58775
2465.44380,1.58314
2463.38239,1.57917
2461.32098,1.57605
2459.25957,1.57351
2457.19816,1.57064
2455.13676,1.56755
2453.07535,1.56505
2451.01394,1.56320
2448.95253,1.56178
2446.89112,1.56109
2444.82972,1.56105
2442.76831,1.56047
2440.70690,1.55872
2438.64549,1.55749
2436.58409,1.55745
2434.52268,1.55705
2432.46127,1.55652
2430.39986,1.55672
2428.33845,1.55707
2426.27705,1.55755
2424.21564,1.55846
2422.15423,1.55905
2420.09282,1.55902
2418.03141,1.55930
2415.97001,1.56058
2413.90860,1.56223
2411.84719,1.56304
2409.78578,1.56334
2407.72438,1.56444
2405.66297,1.56614
2403.60156,1.56773
2401.54015,1.56980
2399.47874,1.57190
2397.41734,1.57309
2395.35593,1.57445
2393.29452,1.57673
2391.23311,1.57909
2389.17170,1.58136
2387.11030,1.58396
2385.04889,1.58637
2382.98748,1.58812
2380.92607,1.58973
2378.86467,1.59189
2376.80326,1.59442
2374.74185,1.59610
2372.68044,1.59674
2370.61903,1.59777
2368.55763,1.59924
2366.49622,1.60031
2364.43481,1.60190
2362.37340,1.60441
2360.31199,1.60751
2358.25059,1.61148
2356.18918,1.61453
2354.12777,1.61591
2352.06636,1.61828
2350.00496,1.62287
2347.94355,1.62812
2345.88214,1.63082
2343.82073,1.63002
2341.75932,1.63237
2339.69792,1.63859
2337.63651,1.64113
2335.57510,1.64083
2333.51369,1.64231
2331.45228,1.64552
2329.39088,1.64921
2327.32947,1.65237
2325.26806,1.65625
2323.20665,1.66135
2321.14525,1.66525
2319.08384,1.66759
2317.02243,1.66941
2314.96102,1.67143
2312.89961,1.67406
2310.83821,1.67657
2308.77680,1.67838
2306.71539,1.68017
2304.65398,1.68249
2302.59257,1.68479
2300.53117,1.68670
2298.46976,1.68815
2296.40835,1.68924
2294.34694,1.69074
2292.28554,1.69162
2290.22413,1.69093
2288.16272,1.69166
2286.10131,1.69514
2284.03990,1.69795
2281.97850,1.69867
2279.91709,1.69976
2277.85568,1.70140
2275.79427,1.70206
2273.73286,1.70249
2271.67146,1.70372
2269.61005,1.70507
2267.54864,1.70617
2265.48723,1.70746
2263.42583,1.70891
2261.36442,1.71020
2259.30301,1.71182
2257.24160,1.71437
2255.18019,1.71646
2253.11879,1.71694
2251.05738,1.71695
2248.99597,1.71770
2246.93456,1.71874
2244.87315,1.72000
2242.81175,1.72138
2240.75034,1.72256
2238.68893,1.72435
2236.62752,1.72552
2234.56612,1.72428
2232.50471,1.72222
2230.44330,1.72150
2228.38189,1.72219
2226.32048,1.72313
2224.25908,1.72331
2222.19767,1.72298
2220.13626,1.72330
2218.07485,1.72399
2216.01344,1.72353
2213.95204,1.72260
2211.89063,1.72269
2209.82922,1.72361
2207.76781,1.72469
2205.70641,1.72484
2203.64500,1.72375
2201.58359,1.72272
2199.52218,1.72279
2197.46077,1.72321
2195.39937,1.72298
2193.33796,1.72183
2191.27655,1.72042
2189.21514,1.71996
2187.15373,1.71925
2185.09233,1.71721
2183.03092,1.71603
2180.96951,1.71636
2178.90810,1.71580
2176.84670,1.71481
2174.78529,1.71494
2172.72388,1.71389
2170.66247,1.71177
2168.60106,1.71169
2166.53966,1.71341
2164.47825,1.71451
2162.41684,1.71350
2160.35543,1.71241
2158.29402,1.71357
2156.23262,1.71516
2154.17121,1.71555
2152.10980,1.71620
2150.04839,1.71761
2147.98699,1.71899
2145.92558,1.72037
2143.86417,1.72125
2141.80276,1.72163
2139.74135,1.72256
2137.67995,1.72374
2135.61854,1.72466
2133.55713,1.72584
2131.49572,1.72661
2129.43431,1.72631
2127.37291,1.72637
2125.31150,1.72748
2123.25009,1.72803
2121.18868,1.72688
2119.12728,1.72521
2117.06587,1.72436
2115.00446,1.72410
2112.94305,1.72294
2110.88164,1.72053
2108.82024,1.71804
2106.75883,1.71538
2104.69742,1.71211
2102.63601,1.70835
2100.57461,1.70387
2098.51320,1.69924
2096.45179,1.69527
2094.39038,1.69124
2092.32897,1.68575
2090.26757,1.68008
2088.20616,1.67655
2086.14475,1.67419
2084.08334,1.67142
2082.02193,1.66828
2079.96053,1.66574
2077.89912,1.66414
2075.83771,1.66261
2073.77630,1.66117
2071.71490,1.66036
2069.65349,1.65936
2067.59208,1.65825
2065.53067,1.65807
2063.46926,1.65756
2061.40786,1.65605
2059.34645,1.65498
2057.28504,1.65410
2055.22363,1.65263
2053.16222,1.65155
2051.10082,1.65163
2049.03941,1.65208
2046.97800,1.65246
2044.91659,1.65340
2042.85519,1.65441
2040.79378,1.65363
2038.73237,1.65156
2036.67096,1.65060
2034.60955,1.65070
2032.54815,1.65092
2030.48674,1.65131
2028.42533,1.65133
2026.36392,1.65159
2024.30251,1.65342
2022.24111,1.65535
2020.17970,1.65542
2018.11829,1.65474
2016.05688,1.65581
2013.99548,1.65918
2011.93407,1.66212
2009.87266,1.66237
2007.81125,1.66125
2005.74984,1.66011
2003.68844,1.65889
2001.62703,1.65799
1999.56562,1.65779
1997.50421,1.65824
1995.44280,1.65918
1993.38140,1.65983
1991.31999,1.66022
1989.25858,1.66086
1987.19717,1.66143
1985.13577,1.66243
1983.07436,1.66440
1981.01295,1.66632
1978.95154,1.66762
1976.89013,1.66875
1974.82873,1.66944
1972.76732,1.66971
1970.70591,1.67010
1968.64450,1.67059
1966.58309,1.67149
1964.52169,1.67409
1962.46028,1.67778
1960.39887,1.68005
1958.33746,1.67934
1956.27606,1.67615
1954.21465,1.67348
1952.15324,1.67287
1950.09183,1.67232
1948.03042,1.67106
1945.96902,1.67094
1943.90761,1.67195
1941.84620,1.67214
1939.78479,1.67208
1937.72338,1.67263
1935.66198,1.67289
1933.60057,1.67297
1931.53916,1.67337
1929.47775,1.67431
1927.41635,1.67615
1925.35494,1.67893
1923.29353,1.68124
1921.23212,1.68226
1919.17071,1.68379
1917.10931,1.68518
1915.04790,1.68575
1912.98649,1.68733
1910.92508,1.68956
1908.86367,1.69106
1906.80227,1.69318
1904.74086,1.69680
1902.67945,1.69972
1900.61804,1.70127
1898.55664,1.70324
1896.49523,1.70664
1894.43382,1.71001
1892.37241,1.71229
1890.31100,1.71413
1888.24960,1.71572
1886.18819,1.71765
1884.12678,1.72004
1882.06537,1.72249
1880.00396,1.72512
1877.94256,1.72763
1875.88115,1.72963
1873.81974,1.73155
1871.75833,1.73538
1869.69693,1.74105
1867.63552,1.74329
1865.57411,1.74267
1863.51270,1.74438
1861.45129,1.74799
1859.38989,1.75135
1857.32848,1.75385
1855.26707,1.75592
1853.20566,1.75883
1851.14425,1.76302
1849.08285,1.76779
1847.02144,1.77313
1844.96003,1.77771
1842.89862,1.77861
1840.83722,1.77999
1838.77581,1.78487
1836.71440,1.79038
1834.65299,1.79597
1832.59158,1.80257
1830.53018,1.80871
1828.46877,1.81303
1826.40736,1.81814
1824.34595,1.82429
1822.28454,1.82910
1820.22314,1.83406
1818.16173,1.84106
1816.10032,1.84991
1814.03891,1.85960
1811.97751,1.87025
1809.91610,1.88339
1807.85469,1.89992
1805.79328,1.91885
1803.73187,1.93735
1801.67047,1.94739
1799.60906,1.94275
1797.54765,1.93164
1795.48624,1.92004
1793.42483,1.90539
1791.36343,1.88943
1789.30202,1.88185
1787.24061,1.88156
1785.17920,1.88068
1783.11780,1.87714
1781.05639,1.87534
1778.99498,1.87757
1776.93357,1.88227
1774.87216,1.88823
1772.81076,1.89329
1770.74935,1.89364
1768.68794,1.89377
1766.62653,1.89684
1764.56512,1.90202
1762.50372,1.90769
1760.44231,1.91088
1758.38090,1.91407
1756.31949,1.91943
1754.25809,1.92558
1752.19668,1.93225
1750.13527,1.93569
1748.07386,1.93498
1746.01245,1.93709
1743.95105,1.94263
1741.88964,1.94915
1739.82823,1.95399
1737.76682,1.95606
1735.70541,1.95956
1733.64401,1.96540
1731.58260,1.97012
1729.52119,1.97482
1727.45978,1.97806
1725.39838,1.97939
1723.33697,1.98095
1721.27556,1.98469
1719.21415,1.99104
1717.15274,1.99799
1715.09134,2.00315
1713.02993,2.00748
1710.96852,2.01291
1708.90711,2.01875
1706.84570,2.02390
1704.78430,2.02998
1702.72289,2.03986
1700.66148,2.05270
1698.60007,2.06304
1696.53867,2.07251
1694.47726,2.08427
1692.41585,2.09515
1690.35444,2.10746
1688.29303,2.12036
1686.23163,2.12735
1684.17022,2.12281
1682.10881,2.11431
1680.04740,2.11490
1677.98599,2.11777
1675.92459,2.11895
1673.86318,2.12036
1671.80177,2.12561
1669.74036,2.13221
1667.67896,2.13613
1665.61755,2.14023
1663.55614,2.14627
1661.49473,2.15421
1659.43332,2.16476
1657.37192,2.17979
1655.31051,2.19366
1653.24910,2.20138
1651.18769,2.20786
1649.12628,2.22154
1647.06488,2.24190
1645.00347,2.26145
1642.94206,2.27536
1640.88065,2.28614
1638.81925,2.29750
1636.75784,2.31329
1634.69643,2.33342
1632.63502,2.34232
1630.57361,2.32700
1628.51221,2.27362
1626.45080,2.20689
1624.38939,2.14952
1622.32798,2.10360
1620.26657,2.08201
1618.20517,2.07951
1616.14376,2.08839
1614.08235,2.10244
1612.02094,2.11558
1609.95954,2.12498
1607.89813,2.12795
1605.83672,2.12425
1603.77531,2.11927
1601.71390,2.11155
1599.65250,2.10263
1597.59109,2.09322
1595.52968,2.08484
1593.46827,2.07629
1591.40686,2.06198
1589.34546,2.04291
1587.28405,2.02329
1585.22264,2.00554
1583.16123,1.98520
1581.09983,1.96307
1579.03842,1.94263
1576.97701,1.91442
1574.91560,1.86816
1572.85419,1.83126
1570.79279,1.79790
1568.73138,1.75696
1566.66997,1.71906
1564.60856,1.68243
1562.54715,1.65229
1560.48575,1.62002
1558.42434,1.54552
1556.36293,1.47804
1554.30152,1.43088
1552.24012,1.38201
1550.17871,1.32961
1548.11730,1.27796
1546.05589,1.23272
1543.99448,1.18688
1541.93308,1.13852
1539.87167,1.08146
1537.81026,1.04374
1535.74885,1.02539
1533.68744,1.00135
1531.62604,0.97528
1529.56463,0.95878
1527.50322,0.94332
1525.44181,0.92614
1523.38041,0.91033
1521.31900,0.89251
1519.25759,0.87869
1517.19618,0.87008
1515.13477,0.86275
1513.07337,0.85762
1511.01196,0.85409
1508.95055,0.84969
1506.88914,0.83835
1504.82773,0.82942
1502.76633,0.82959
1500.70492,0.82992
1498.64351,0.82695
1496.58210,0.82151
1494.52070,0.81876
1492.45929,0.81939
1490.39788,0.81837
1488.33647,0.81421
1486.27506,0.81246
1484.21366,0.81380
1482.15225,0.81521
1480.09084,0.81564
1478.02943,0.81585
1475.96802,0.81586
1473.90662,0.81445
1471.84521,0.81267
1469.78380,0.81457
1467.72239,0.81811
1465.66099,0.81946
1463.59958,0.81939
1461.53817,0.82146
1459.47676,0.82376
1457.41535,0.82224
1455.35395,0.82109
1453.29254,0.82461
1451.23113,0.82865
1449.16972,0.83146
1447.10831,0.83320
1445.04691,0.83533
1442.98550,0.83841
1440.92409,0.84179
1438.86268,0.84435
1436.80128,0.84393
1434.73987,0.84292
1432.67846,0.84470
1430.61705,0.84685
1428.55564,0.84853
1426.49424,0.85095
1424.43283,0.85329
1422.37142,0.85521
1420.31001,0.85641
1418.24860,0.85581
1416.18720,0.85652
1414.12579,0.85922
1412.06438,0.86186
1410.00297,0.86502
1407.94157,0.87094
1405.88016,0.88129
1403.81875,0.89539
1401.75734,0.90899
1399.69593,0.92011
1397.63453,0.93003
1395.57312,0.94205
1393.51171,0.95760
1391.45030,0.97443
1389.38889,0.99189
1387.32749,1.00959
1385.26608,1.02530
1383.20467,1.03928
1381.14326,1.05265
1379.08186,1.06508
1377.02045,1.07664
1374.95904,1.08731
1372.89763,1.09703
1370.83622,1.10646
1368.77482,1.11611
1366.71341,1.12501
1364.65200,1.13309
1362.59059,1.14078
1360.52918,1.14792
1358.46778,1.15494
1356.40637,1.16212
1354.34496,1.16914
1352.28355,1.17582
1350.22215,1.18243
1348.16074,1.18882
1346.09933,1.19485
1344.03792,1.20074
1341.97651,1.20697
1339.91511,1.21280
1337.85370,1.21760
1335.79229,1.22231
1333.73088,1.22750
1331.66947,1.23256
1329.60807,1.23741
1327.54666,1.24258
1325.48525,1.24790
1323.42384,1.25305
1321.36244,1.25783
1319.30103,1.26238
1317.23962,1.26662
1315.17821,1.27048
1313.11680,1.27387
1311.05540,1.27711
1308.99399,1.28059
1306.93258,1.28435
1304.87117,1.28797
1302.80976,1.29105
1300.74836,1.29379
1298.68695,1.29670
1296.62554,1.30039
1294.56413,1.30460
1292.50273,1.30852
1290.44132,1.31219
1288.37991,1.31617
1286.31850,1.32050
1284.25709,1.32492
1282.19569,1.32905
1280.13428,1.33283
1278.07287,1.33642
1276.01146,1.34018
1273.95005,1.34409
1271.88865,1.34757
1269.82724,1.35114
1267.76583,1.35531
1265.70442,1.35996
1263.64302,1.36440
1261.58161,1.36784
1259.52020,1.37056
1257.45879,1.37353
1255.39738,1.37701
1253.33598,1.38089
1251.27457,1.38552
1249.21316,1.39054
1247.15175,1.39506
1245.09034,1.39935
1243.02894,1.40385
1240.96753,1.40821
1238.90612,1.41232
1236.84471,1.41592
1234.78331,1.41888
1232.72190,1.42181
1230.66049,1.42540
1228.59908,1.42931
1226.53767,1.43304
1224.47627,1.43702
1222.41486,1.44109
1220.35345,1.44413
1218.29204,1.44613
1216.23063,1.44826
1214.16923,1.45108
1212.10782,1.45358
1210.04641,1.45487
1207.98500,1.45612
1205.92360,1.45804
1203.86219,1.46030
1201.80078,1.46271
1199.73937,1.46496
1197.67796,1.46699
1195.61656,1.46927
1193.55515,1.47177
1191.49374,1.47338
1189.43233,1.47311
1187.37092,1.47096
1185.30952,1.46705
1183.24811,1.46103
1181.18670,1.45233
1179.12529,1.44074
1177.06389,1.42627
1175.00248,1.40957
1172.94107,1.39210
1170.87966,1.37446
1168.81825,1.35610
1166.75685,1.33783
1164.69544,1.32075
1162.63403,1.30432
1160.57262,1.28854
1158.51121,1.27373
1156.44981,1.25906
1154.38840,1.24439
1152.32699,1.23074
1150.26558,1.21845
1148.20418,1.20720
1146.14277,1.19669
1144.08136,1.18699
1142.01995,1.17896
1139.95854,1.17321
1137.89714,1.16933
1135.83573,1.16642
1133.77432,1.16404
1131.71291,1.16179
1129.65150,1.15910
1127.59010,1.15603
1125.52869,1.15282
1123.46728,1.14965
1121.40587,1.14707
1119.34447,1.14570
1117.28306,1.14592
1115.22165,1.14789
1113.16024,1.15158
1111.09883,1.15719
1109.03743,1.16515
1106.97602,1.17493
1104.91461,1.18508
1102.85320,1.19487
1100.79179,1.20423
1098.73039,1.21305
1096.66898,1.22104
1094.60757,1.22821
1092.54616,1.23520
1090.48476,1.24226
1088.42335,1.24880
1086.36194,1.25458
1084.30053,1.26001
1082.23912,1.26523
1080.17772,1.27004
1078.11631,1.27465
1076.05490,1.27976
1073.99349,1.28523
1071.93208,1.29024
1069.87068,1.29459
1067.80927,1.29888
1065.74786,1.30388
1063.68645,1.30898
1061.62505,1.31295
1059.56364,1.31631
1057.50223,1.32012
1055.44082,1.32340
1053.37941,1.32561
1051.31801,1.32750
1049.25660,1.32900
1047.19519,1.33027
1045.13378,1.33217
1043.07238,1.33452
1041.01097,1.33655
1038.94956,1.33776
1036.88815,1.33801
1034.82674,1.33796
1032.76534,1.33849
1030.70393,1.33984
1028.64252,1.34100
1026.58111,1.34139
1024.51970,1.34194
1022.45830,1.34323
1020.39689,1.34516
1018.33548,1.34706
1016.27407,1.34839
1014.21267,1.34927
1012.15126,1.34999
1010.08985,1.35089
1008.02844,1.35252
1005.96703,1.35414
1003.90563,1.35445
1001.84422,1.35436
999.78281,1.35517
997.72140,1.35688
995.65999,1.35919
993.59859,1.36171
991.53718,1.36425
989.47577,1.36655
987.41436,1.36780
985.35296,1.36848
983.29155,1.36992
981.23014,1.37205
979.16873,1.37453
977.10732,1.37733
975.04592,1.38008
972.98451,1.38271
970.92310,1.38550
968.86169,1.38834
966.80028,1.39030
964.73888,1.39107
962.67747,1.39252
960.61606,1.39544
958.55465,1.39850
956.49325,1.40156
954.43184,1.40439
952.37043,1.40665
950.30902,1.40892
948.24761,1.41136
946.18621,1.41439
944.12480,1.41816
942.06339,1.42225
940.00198,1.42632
937.94057,1.43026
935.87917,1.43392
933.81776,1.43763
931.75635,1.44170
929.69494,1.44497
927.63354,1.44804
925.57213,1.45255
923.51072,1.45741
921.44931,1.46180
919.38790,1.46663
917.32650,1.47153
915.26509,1.47582
913.20368,1.48034
911.14227,1.48657
909.08086,1.49402
907.01946,1.50131
904.95805,1.50905
902.89664,1.51828
900.83523,1.53011
898.77383,1.54495
896.71242,1.56237
894.65101,1.58425
892.58960,1.61434
890.52819,1.65732
888.46679,1.69943
886.40538,1.67423
884.34397,1.56001
882.28256,1.42757
880.22115,1.31479
878.15975,1.22971
876.09834,1.17610
874.03693,1.15008
871.97552,1.14928
869.91412,1.17346
867.85271,1.21255
865.79130,1.25027
863.72989,1.27993
861.66848,1.30337
859.60708,1.32172
857.54567,1.33658
855.48426,1.34997
853.42285,1.36272
851.36144,1.37465
849.30004,1.38139
847.23863,1.38162
845.17722,1.38296
843.11581,1.38870
841.05441,1.39554
838.99300,1.40127
836.93159,1.40590
834.87018,1.41102
832.80877,1.41703
830.74737,1.42324
828.68596,1.42843
826.62455,1.43162
824.56314,1.43402
822.50173,1.43695
820.44033,1.44073
818.37892,1.44451
816.31751,1.44672
814.25610,1.44807
812.19470,1.45047
810.13329,1.45493
808.07188,1.46106
806.01047,1.46548
803.94906,1.46652
801.88766,1.46648
799.82625,1.46588
797.76484,1.46532
795.70343,1.46639
793.64202,1.46860
791.58062,1.47153
789.51921,1.47320
787.45780,1.47312
785.39639,1.47571
783.33499,1.48076
781.27358,1.48413
779.21217,1.48624
777.15076,1.48837
775.08935,1.49049
773.02795,1.49255
770.96654,1.49411
768.90513,1.49619
766.84372,1.50025
764.78231,1.50507
762.72091,1.50832
760.65950,1.51087
758.59809,1.51416
756.53668,1.51706
754.47528,1.51936
752.41387,1.52197
750.35246,1.52511
748.29105,1.52937
746.22964,1.53486
744.16824,1.54077
742.10683,1.54636
740.04542,1.55143
737.98401,1.55700
735.92260,1.56332
733.86120,1.57005
731.79979,1.57682
729.73838,1.58338
727.67697,1.59268
725.61557,1.60710
723.55416,1.62575
721.49275,1.64958
719.43134,1.67770
717.36993,1.68631
715.30853,1.62630
713.24712,1.51835
711.18571,1.44815
709.12430,1.44320
707.06289,1.47257
705.00149,1.50366
702.94008,1.52598
700.87867,1.54043
698.81726,1.55086
696.75586,1.55926
694.69445,1.56778
692.63304,1.57785
690.57163,1.58488
688.51022,1.58604
686.44882,1.58483
684.38741,1.58056
682.32600,1.56919
680.26459,1.54990
678.20318,1.52422
676.14178,1.49488
674.08037,1.46503
672.01896,1.43954
669.95755,1.41925
667.89615,1.40516
665.83474,1.40968
663.77333,1.42633
661.71192,1.44661
659.65051,1.46750
657.58911,1.48642
655.52770,1.50251
653.46629,1.51787
651.40488,1.53297
649.34347,1.54485
647.28207,1.55592
645.22066,1.57013
643.15925,1.58459
641.09784,1.59823
639.03644,1.61137
636.97503,1.62203
634.91362,1.63020
632.85221,1.63910
630.79080,1.65140
628.72940,1.66458
626.66799,1.67583
624.60658,1.68555
622.54517,1.69496
620.48376,1.70371
618.42236,1.70823
616.36095,1.70623
614.29954,1.69785
612.23813,1.68048
610.17673,1.65471
608.11532,1.62308
606.05391,1.58896
603.99250,1.55999
601.93109,1.53880
599.86969,1.52216
597.80828,1.51120
595.74687,1.50715
593.68546,1.50734
591.62405,1.51239
589.56265,1.52207
587.50124,1.53148
585.43983,1.53880
583.37842,1.54665
581.31702,1.55470
579.25561,1.56179
577.19420,1.56813
575.13279,1.57323
573.07138,1.57945
571.00998,1.58769
568.94857,1.59620
566.88716,1.60440
564.82575,1.61256
562.76434,1.61864
560.70294,1.62365
558.64153,1.63258
556.58012,1.64536
554.51871,1.65587
552.45731,1.66228
550.39590,1.66832
548.33449,1.67484
546.27308,1.68088
544.21167,1.67985
542.15027,1.67456
540.08886,1.67814
538.02745,1.69224
535.96604,1.70853
533.90463,1.71813
531.84323,1.71961
529.78182,1.71862
527.72041,1.71663
525.65900,1.71390
523.59760,1.71259
521.53619,1.71396
519.47478,1.72257
517.41337,1.73482
515.35196,1.73812
513.29056,1.73481
511.22915,1.73422
509.16774,1.73583
507.10633,1.73065
505.04492,1.72236
502.98352,1.72372
500.92211,1.72912
498.86070,1.72786
496.79929,1.72214
494.73789,1.71411
492.67648,1.70131
490.61507,1.69335
488.55366,1.69918
486.49225,1.69902
484.43085,1.68102
482.36944,1.66438
480.30803,1.65835
478.24662,1.65374
476.18521,1.64429
474.12381,1.63309
472.06240,1.62265
470.00099,1.61668
467.93958,1.61485
465.87818,1.61453
463.81677,1.61690
461.75536,1.62476
459.69395,1.63888
457.63254,1.64879
455.57114,1.65035
453.50973,1.65204
451.44832,1.64982
449.38691,1.64449
447.32550,1.64843
445.26410,1.66422
443.20269,1.67642
441.14128,1.68274
439.07987,1.69040
437.01847,1.69289
434.95706,1.68607
432.89565,1.67942
430.83424,1.69166
428.77283,1.72813
426.71143,1.75552
424.65002,1.75031
422.58861,1.74980
420.52720,1.74437
418.46579,1.70580
416.40439,1.69651
414.34298,1.70338
412.28157,1.69394
410.22016,1.67082
408.15876,1.64557
406.09735,1.62727
404.03594,1.61342
401.97453,1.59526
399.91312,1.56751
