3997.06983,1.26553
3995.00842,1.26593
3992.94702,1.26636
3990.88561,1.26705
3988.82420,1.26794
3986.76279,1.26921
3984.70139,1.27096
3982.63998,1.27283
3980.57857,1.27423
3978.51716,1.27520
3976.45575,1.27626
3974.39435,1.27793
3972.33294,1.28043
3970.27153,1.28328
3968.21012,1.28606
3966.14871,1.28961
3964.08731,1.29409
3962.02590,1.29808
3959.96449,1.30085
3957.90308,1.30383
3955.84168,1.30749
3953.78027,1.31156
3951.71886,1.31713
3949.65745,1.32262
3947.59604,1.32492
3945.53464,1.32662
3943.47323,1.32989
3941.41182,1.33021
3939.35041,1.32647
3937.28900,1.32285
3935.22760,1.32120
3933.16619,1.31914
3931.10478,1.31314
3929.04337,1.30545
3926.98197,1.30038
3924.92056,1.29609
3922.85915,1.28922
3920.79774,1.28186
3918.73633,1.27511
3916.67493,1.26686
3914.61352,1.25762
3912.55211,1.24961
3910.49070,1.24359
3908.42929,1.24025
3906.36789,1.24012
3904.30648,1.24042
3902.24507,1.23684
3900.18366,1.22983
3898.12226,1.22189
3896.06085,1.21687
3893.99944,1.21685
3891.93803,1.21754
3889.87662,1.21515
3887.81522,1.21461
3885.75381,1.21530
3883.69240,1.21279
3881.63099,1.20996
3879.56958,1.20636
3877.50818,1.20387
3875.44677,1.20571
3873.38536,1.20833
3871.32395,1.20948
3869.26255,1.20796
3867.20114,1.20516
3865.13973,1.20418
3863.07832,1.20147
3861.01691,1.19761
3858.95551,1.19777
3856.89410,1.20226
3854.83269,1.20773
3852.77128,1.20532
3850.70987,1.19715
3848.64847,1.19345
3846.58706,1.19380
3844.52565,1.19661
3842.46424,1.20000
3840.40284,1.20202
3838.34143,1.20145
3836.28002,1.19866
3834.21861,1.19603
3832.15720,1.19346
3830.09580,1.19122
3828.03439,1.19112
3825.97298,1.19266
3823.91157,1.19664
3821.85016,1.20250
3819.78876,1.20260
3817.72735,1.19882
3815.66594,1.19501
3813.60453,1.19136
3811.54313,1.19101
3809.48172,1.19356
3807.42031,1.19600
3805.35890,1.19738
3803.29749,1.20039
3801.23609,1.20137
3799.17468,1.19897
3797.11327,1.19785
3795.05186,1.19583
3792.99045,1.19388
3790.92905,1.19477
3788.86764,1.19737
3786.80623,1.20021
3784.74482,1.20195
3782.68342,1.20172
3780.62201,1.20131
3778.56060,1.20083
3776.49919,1.19966
3774.43778,1.20015
3772.37638,1.20351
3770.31497,1.20745
3768.25356,1.20913
3766.19215,1.20944
3764.13074,1.21032
3762.06934,1.21344
3760.00793,1.21759
3757.94652,1.21916
3755.88511,1.22109
3753.82371,1.22718
3751.76230,1.23292
3749.70089,1.23125
3747.63948,1.22976
3745.57807,1.23224
3743.51667,1.23167
3741.45526,1.23114
3739.39385,1.23607
3737.33244,1.24505
3735.27103,1.25194
3733.20963,1.25041
3731.14822,1.24775
3729.08681,1.25123
3727.02540,1.25955
3724.96400,1.26795
3722.90259,1.27543
3720.84118,1.28449
3718.77977,1.29534
3716.71836,1.30847
3714.65696,1.32586
3712.59555,1.34891
3710.53414,1.37237
3708.47273,1.38997
3706.41132,1.40685
3704.34992,1.42727
3702.28851,1.44924
3700.22710,1.46472
3698.16569,1.46969
3696.10429,1.46632
3694.04288,1.45916
3691.98147,1.45205
3689.92006,1.44183
3687.85865,1.42731
3685.79725,1.41942
3683.73584,1.41987
3681.67443,1.42485
3679.61302,1.43241
3677.55161,1.44346
3675.49021,1.45650
3673.42880,1.46431
3671.36739,1.47120
3669.30598,1.47765
3667.24458,1.47983
3665.18317,1.48296
3663.12176,1.48868
3661.06035,1.49681
3658.99894,1.50898
3656.93754,1.52268
3654.87613,1.53081
3652.81472,1.53663
3650.75331,1.54701
3648.69190,1.55513
3646.63050,1.55288
3644.56909,1.55042
3642.50768,1.55246
3640.44627,1.55662
3638.38487,1.56130
3636.32346,1.56675
3634.26205,1.57338
3632.20064,1.58264
3630.13923,1.59458
3628.07783,1.60171
3626.01642,1.60169
3623.95501,1.60513
3621.89360,1.61431
3619.83219,1.62147
3617.77079,1.61602
3615.70938,1.60592
3613.64797,1.60099
3611.58656,1.60059
3609.52516,1.60200
3607.46375,1.60101
3605.40234,1.59706
3603.34093,1.59581
3601.27952,1.59857
3599.21812,1.60134
3597.15671,1.60377
3595.09530,1.60589
3593.03389,1.60581
3590.97248,1.60775
3588.91108,1.61430
3586.84967,1.61752
3584.78826,1.61300
3582.72685,1.60950
3580.66545,1.60902
3578.60404,1.60791
3576.54263,1.60612
3574.48122,1.60589
3572.41981,1.60763
3570.35841,1.61192
3568.29700,1.61749
3566.23559,1.61636
3564.17418,1.61080
3562.11277,1.60950
3560.05137,1.60882
3557.98996,1.60635
3555.92855,1.60670
3553.86714,1.61030
3551.80574,1.61285
3549.74433,1.61418
3547.68292,1.61650
3545.62151,1.61812
3543.56010,1.61778
3541.49870,1.61714
3539.43729,1.61708
3537.37588,1.61663
3535.31447,1.61583
3533.25306,1.61742
3531.19166,1.62143
3529.13025,1.62463
3527.06884,1.62634
3525.00743,1.62772
3522.94603,1.62797
3520.88462,1.62806
3518.82321,1.62941
3516.76180,1.63080
3514.70039,1.63230
3512.63899,1.63404
3510.57758,1.63532
3508.51617,1.63627
3506.45476,1.63738
3504.39335,1.63928
3502.33195,1.64078
3500.27054,1.64075
3498.20913,1.64080
3496.14772,1.64221
3494.08632,1.64394
3492.02491,1.64650
3489.96350,1.65138
3487.90209,1.65486
3485.84068,1.65410
3483.77928,1.65357
3481.71787,1.65600
3479.65646,1.65805
3477.59505,1.65793
3475.53364,1.65770
3473.47224,1.65917
3471.41083,1.66202
3469.34942,1.66444
3467.28801,1.66514
3465.22661,1.66415
3463.16520,1.66378
3461.10379,1.66598
3459.04238,1.66906
3456.98097,1.67016
3454.91957,1.66919
3452.85816,1.66846
3450.79675,1.67039
3448.73534,1.67508
3446.67393,1.67771
3444.61253,1.67671
3442.55112,1.67593
3440.48971,1.67674
3438.42830,1.67896
3436.36690,1.68032
3434.30549,1.67965
3432.24408,1.67864
3430.18267,1.67822
3428.12126,1.67938
3426.05986,1.68123
3423.99845,1.68208
3421.93704,1.68276
3419.87563,1.68327
3417.81422,1.68215
3415.75282,1.68049
3413.69141,1.67960
3411.63000,1.68001
3409.56859,1.68198
3407.50719,1.68340
3405.44578,1.68340
3403.38437,1.68280
3401.32296,1.68212
3399.26155,1.68301
3397.20015,1.68460
3395.13874,1.68554
3393.07733,1.68669
3391.01592,1.68629
3388.95451,1.68492
3386.89311,1.68544
3384.83170,1.68621
3382.77029,1.68576
3380.70888,1.68619
3378.64748,1.68789
3376.58607,1.68849
3374.52466,1.68853
3372.46325,1.68969
3370.40184,1.68976
3368.34044,1.68774
3366.27903,1.68672
3364.21762,1.68720
3362.15621,1.68739
3360.09480,1.68821
3358.03340,1.68898
3355.97199,1.68705
3353.91058,1.68482
3351.84917,1.68523
3349.78777,1.68641
3347.72636,1.68762
3345.66495,1.68950
3343.60354,1.68966
3341.54213,1.68789
3339.48073,1.68698
3337.41932,1.68604
3335.35791,1.68353
3333.29650,1.68196
3331.23509,1.68291
3329.17369,1.68394
3327.11228,1.68383
3325.05087,1.68394
3322.98946,1.68476
3320.92806,1.68508
3318.86665,1.68501
3316.80524,1.68590
3314.74383,1.68591
3312.68242,1.68469
3310.62102,1.68473
3308.55961,1.68505
3306.49820,1.68392
3304.43679,1.68216
3302.37538,1.68116
3300.31398,1.68180
3298.25257,1.68350
3296.19116,1.68409
3294.12975,1.68300
3292.06835,1.68223
3290.00694,1.68271
3287.94553,1.68338
3285.88412,1.68383
3283.82271,1.68403
3281.76131,1.68285
3279.69990,1.68138
3277.63849,1.68218
3275.57708,1.68421
3273.51567,1.68469
3271.45427,1.68397
3269.39286,1.68322
3267.33145,1.68232
3265.27004,1.68250
3263.20864,1.68425
3261.14723,1.68472
3259.08582,1.68286
3257.02441,1.68260
3254.96300,1.68497
3252.90160,1.68589
3250.84019,1.68524
3248.77878,1.68507
3246.71737,1.68410
3244.65596,1.68263
3242.59456,1.68326
3240.53315,1.68482
3238.47174,1.68432
3236.41033,1.68333
3234.34893,1.68456
3232.28752,1.68592
3230.22611,1.68551
3228.16470,1.68483
3226.10329,1.68411
3224.04189,1.68294
3221.98048,1.68295
3219.91907,1.68444
3217.85766,1.68575
3215.79625,1.68631
3213.73485,1.68555
3211.67344,1.68378
3209.61203,1.68275
3207.55062,1.68091
3205.48922,1.67698
3203.42781,1.67425
3201.36640,1.67350
3199.30499,1.67231
3197.24358,1.67135
3195.18218,1.67170
3193.12077,1.67255
3191.05936,1.67310
3188.99795,1.67259
3186.93654,1.67189
3184.87514,1.67188
3182.81373,1.67224
3180.75232,1.67274
3178.69091,1.67216
3176.62951,1.67005
3174.56810,1.66752
3172.50669,1.66544
3170.44528,1.66457
3168.38387,1.66416
3166.32247,1.66339
3164.26106,1.66293
3162.19965,1.66252
3160.13824,1.66157
3158.07683,1.65948
3156.01543,1.65639
3153.95402,1.65395
3151.89261,1.65225
3149.83120,1.65001
3147.76980,1.64807
3145.70839,1.64778
3143.64698,1.64797
3141.58557,1.64754
3139.52416,1.64666
3137.46276,1.64546
3135.40135,1.64427
3133.33994,1.64278
3131.27853,1.64076
3129.21713,1.63905
3127.15572,1.63834
3125.09431,1.63871
3123.03290,1.64003
3120.97149,1.64089
3118.91009,1.63968
3116.84868,1.63758
3114.78727,1.63673
3112.72586,1.63710
3110.66445,1.63694
3108.60305,1.63585
3106.54164,1.63493
3104.48023,1.63468
3102.41882,1.63484
3100.35742,1.63525
3098.29601,1.63548
3096.23460,1.63468
3094.17319,1.63268
3092.11178,1.63060
3090.05038,1.63056
3087.98897,1.63246
3085.92756,1.63436
3083.86615,1.63533
3081.80474,1.63441
3079.74334,1.63228
3077.68193,1.63130
3075.62052,1.63161
3073.55911,1.63173
3071.49771,1.63096
3069.43630,1.63011
3067.37489,1.63066
3065.31348,1.63187
3063.25207,1.63176
3061.19067,1.63088
3059.12926,1.63089
3057.06785,1.63152
3055.00644,1.63232
3052.94503,1.63374
3050.88363,1.63476
3048.82222,1.63506
3046.76081,1.63590
3044.69940,1.63691
3042.63800,1.63758
3040.57659,1.63853
3038.51518,1.63973
3036.45377,1.64049
3034.39236,1.64135
3032.33096,1.64345
3030.26955,1.64650
3028.20814,1.65010
3026.14673,1.65427
3024.08532,1.65763
3022.02392,1.65938
3019.96251,1.66132
3017.90110,1.66419
3015.83969,1.66777
3013.77829,1.67252
3011.71688,1.67799
3009.65547,1.68427
3007.59406,1.69094
3005.53265,1.69801
3003.47125,1.70809
3001.40984,1.72223
2999.34843,1.73996
2997.28702,1.76181
2995.22561,1.78775
2993.16421,1.81572
2991.10280,1.84231
2989.04139,1.86460
2986.97998,1.87990
2984.91858,1.88682
2982.85717,1.88991
2980.79576,1.89232
2978.73435,1.88991
2976.67294,1.88162
2974.61154,1.87506
2972.55013,1.87343
2970.48872,1.87125
2968.42731,1.86715
2966.36590,1.86489
2964.30450,1.86605
2962.24309,1.86656
2960.18168,1.86426
2958.12027,1.86121
2956.05887,1.85802
2953.99746,1.85568
2951.93605,1.85491
2949.87464,1.85597
2947.81323,1.85744
2945.75183,1.85850
2943.69042,1.85899
2941.62901,1.85756
2939.56760,1.85630
2937.50619,1.85587
2935.44479,1.85438
2933.38338,1.85188
2931.32197,1.84904
2929.26056,1.84779
2927.19916,1.84884
2925.13775,1.84902
2923.07634,1.84709
2921.01493,1.84548
2918.95352,1.84563
2916.89212,1.84708
2914.83071,1.84719
2912.76930,1.84511
2910.70789,1.84561
2908.64648,1.84861
2906.58508,1.84857
2904.52367,1.84806
2902.46226,1.85056
2900.40085,1.85241
2898.33945,1.85433
2896.27804,1.85977
2894.21663,1.86600
2892.15522,1.87092
2890.09381,1.87479
2888.03241,1.87849
2885.97100,1.88683
2883.90959,1.90065
2881.84818,1.91249
2879.78677,1.92062
2877.72537,1.92805
2875.66396,1.93243
2873.60255,1.93422
2871.54114,1.93414
2869.47974,1.93074
2867.41833,1.92680
2865.35692,1.92202
2863.29551,1.91448
2861.23410,1.90629
2859.17270,1.90019
2857.11129,1.89721
2855.04988,1.89457
2852.98847,1.88890
2850.92706,1.88185
2848.86566,1.87528
2846.80425,1.86695
2844.74284,1.85645
2842.68143,1.84394
2840.62003,1.82713
2838.55862,1.80620
2836.49721,1.78333
2834.43580,1.76049
2832.37439,1.73908
2830.31299,1.72001
2828.25158,1.70311
2826.19017,1.68776
2824.12876,1.67378
2822.06735,1.66154
2820.00595,1.65162
2817.94454,1.64278
2815.88313,1.63481
2813.82172,1.62942
2811.76032,1.62561
2809.69891,1.62187
2807.63750,1.61927
2805.57609,1.61858
2803.51468,1.61838
2801.45328,1.61753
2799.39187,1.61617
2797.33046,1.61315
2795.26905,1.60607
2793.20764,1.59588
2791.14624,1.58593
2789.08483,1.57720
2787.02342,1.56942
2784.96201,1.56266
2782.90061,1.55751
2780.83920,1.55351
2778.77779,1.54923
2776.71638,1.54469
2774.65497,1.54037
2772.59357,1.53668
2770.53216,1.53397
2768.47075,1.53133
2766.40934,1.52868
2764.34793,1.52706
2762.28653,1.52587
2760.22512,1.52444
2758.16371,1.52284
2756.10230,1.52078
2754.04090,1.51812
2751.97949,1.51610
2749.91808,1.51560
2747.85667,1.51459
2745.79526,1.51183
2743.73386,1.50885
2741.67245,1.50725
2739.61104,1.50685
2737.54963,1.50638
2735.48822,1.50545
2733.42682,1.50404
2731.36541,1.50205
2729.30400,1.49999
2727.24259,1.49833
2725.18119,1.49720
2723.11978,1.49692
2721.05837,1.49671
2718.99696,1.49579
2716.93555,1.49493
2714.87415,1.49457
2712.81274,1.49484
2710.75133,1.49541
2708.68992,1.49525
2706.62851,1.49468
2704.56711,1.49489
2702.50570,1.49540
2700.44429,1.49523
2698.38288,1.49490
2696.32148,1.49475
2694.26007,1.49496
2692.19866,1.49564
2690.13725,1.49626
2688.07584,1.49752
2686.01444,1.49957
2683.95303,1.50132
2681.89162,1.50324
2679.83021,1.50608
2677.76880,1.50922
2675.70740,1.51199
2673.64599,1.51446
2671.58458,1.51724
2669.52317,1.52034
2667.46177,1.52269
2665.40036,1.52406
2663.33895,1.52580
2661.27754,1.52871
2659.21613,1.53215
2657.15473,1.53564
2655.09332,1.53992
2653.03191,1.54508
2650.97050,1.55026
2648.90909,1.55627
2646.84769,1.56451
2644.78628,1.57416
2642.72487,1.58409
2640.66346,1.59608
2638.60206,1.61258
2636.54065,1.63346
2634.47924,1.65695
2632.41783,1.68165
2630.35642,1.70672
2628.29502,1.73072
2626.23361,1.75140
2624.17220,1.76859
2622.11079,1.78511
2620.04938,1.80121
2617.98798,1.81401
2615.92657,1.82474
2613.86516,1.83609
2611.80375,1.84758
2609.74235,1.85988
2607.68094,1.87368
2605.61953,1.88484
2603.55812,1.88993
2601.49671,1.89047
2599.43531,1.89050
2597.37390,1.89349
2595.31249,1.89863
2593.25108,1.90197
2591.18967,1.90218
2589.12827,1.90275
2587.06686,1.90523
2585.00545,1.90679
2582.94404,1.90716
2580.88264,1.90801
2578.82123,1.90877
2576.75982,1.90957
2574.69841,1.91167
2572.63700,1.91337
2570.57560,1.91240
2568.51419,1.91209
2566.45278,1.91619
2564.39137,1.92038
2562.32996,1.92103
2560.26856,1.92153
2558.20715,1.92235
2556.14574,1.92304
2554.08433,1.92617
2552.02293,1.93165
2549.96152,1.93707
2547.90011,1.94057
2545.83870,1.94259
2543.77729,1.94415
2541.71589,1.94493
2539.65448,1.94856
2537.59307,1.95833
2535.53166,1.96958
2533.47025,1.97874
2531.40885,1.98780
2529.34744,1.99564
2527.28603,2.00065
2525.22462,2.00390
2523.16322,2.00484
2521.10181,2.00457
2519.04040,2.00604
2516.97899,2.00736
2514.91758,2.00498
2512.85618,2.00084
2510.79477,1.99773
2508.73336,1.99432
2506.67195,1.98850
2504.61054,1.98135
2502.54914,1.97484
2500.48773,1.96833
2498.42632,1.95930
2496.36491,1.94653
2494.30351,1.93298
2492.24210,1.92042
2490.18069,1.90814
2488.11928,1.89785
2486.05787,1.88941
2483.99647,1.87929
2481.93506,1.86675
2479.87365,1.85299
2477.81224,1.83694
2475.75083,1.81893
2473.68943,1.80076
2471.62802,1.78250
2469.56661,1.76467
2467.50520,1.74866
2465.44380,1.73418
2463.38239,1.72114
2461.32098,1.71034
2459.25957,1.70047
2457.19816,1.69037
2455.13676,1.68097
2453.07535,1.67278
2451.01394,1.66461
2448.95253,1.65602
2446.89112,1.64848
2444.82972,1.64189
2442.76831,1.63501
2440.70690,1.62819
2438.64549,1.62188
2436.58409,1.61572
2434.52268,1.60967
2432.46127,1.60397
2430.39986,1.59834
2428.33845,1.59250
2426.27705,1.58661
2424.21564,1.58057
2422.15423,1.57460
2420.09282,1.56967
2418.03141,1.56532
2415.97001,1.55994
2413.90860,1.55396
2411.84719,1.54908
2409.78578,1.54575
2407.72438,1.54297
2405.66297,1.53947
2403.60156,1.53517
2401.54015,1.53110
2399.47874,1.52830
2397.41734,1.52687
2395.35593,1.52545
2393.29452,1.52316
2391.23311,1.52071
2389.17170,1.51869
2387.11030,1.51753
2385.04889,1.51744
2382.98748,1.51759
2380.92607,1.51702
2378.86467,1.51541
2376.80326,1.51258
2374.74185,1.50819
2372.68044,1.50231
2370.61903,1.49653
2368.55763,1.49316
2366.49622,1.49171
2364.43481,1.48900
2362.37340,1.48503
2360.31199,1.48302
2358.25059,1.48261
2356.18918,1.48362
2354.12777,1.48826
2352.06636,1.49533
2350.00496,1.50170
2347.94355,1.50580
2345.88214,1.50683
2343.82073,1.50523
2341.75932,1.50265
2339.69792,1.49971
2337.63651,1.49777
2335.57510,1.49702
2333.51369,1.49610
2331.45228,1.49493
2329.39088,1.49531
2327.32947,1.49844
2325.26806,1.50206
2323.20665,1.50403
2321.14525,1.50516
2319.08384,1.50647
2317.02243,1.50800
2314.96102,1.50979
2312.89961,1.51149
2310.83821,1.51178
2308.77680,1.51071
2306.71539,1.51000
2304.65398,1.51049
2302.59257,1.51091
2300.53117,1.50980
2298.46976,1.50779
2296.40835,1.50579
2294.34694,1.50341
2292.28554,1.50056
2290.22413,1.49812
2288.16272,1.49640
2286.10131,1.49528
2284.03990,1.49531
2281.97850,1.49595
2279.91709,1.49632
2277.85568,1.49672
2275.79427,1.49760
2273.73286,1.49909
2271.67146,1.50076
2269.61005,1.50209
2267.54864,1.50377
2265.48723,1.50646
2263.42583,1.50957
2261.36442,1.51241
2259.30301,1.51486
2257.24160,1.51749
2255.18019,1.52106
2253.11879,1.52573
2251.05738,1.53126
2248.99597,1.53652
2246.93456,1.54078
2244.87315,1.54475
2242.81175,1.54874
2240.75034,1.55301
2238.68893,1.55776
2236.62752,1.56227
2234.56612,1.56688
2232.50471,1.57211
2230.44330,1.57710
2228.38189,1.58127
2226.32048,1.58574
2224.25908,1.59129
2222.19767,1.59615
2220.13626,1.59871
2218.07485,1.59997
2216.01344,1.60123
2213.95204,1.60204
2211.89063,1.60245
2209.82922,1.60428
2207.76781,1.60749
2205.70641,1.60949
2203.64500,1.60939
2201.58359,1.60899
2199.52218,1.60971
2197.46077,1.61113
2195.39937,1.61272
2193.33796,1.61487
2191.27655,1.61733
2189.21514,1.61901
2187.15373,1.61965
2185.09233,1.62009
2183.03092,1.62120
2180.96951,1.62352
2178.90810,1.62670
2176.84670,1.63002
2174.78529,1.63355
2172.72388,1.63696
2170.66247,1.63966
2168.60106,1.64366
2166.53966,1.65118
2164.47825,1.66080
2162.41684,1.67091
2160.35543,1.68244
2158.29402,1.69647
2156.23262,1.71280
2154.17121,1.73003
2152.10980,1.74681
2150.04839,1.76205
2147.98699,1.77483
2145.92558,1.78453
2143.86417,1.79045
2141.80276,1.79284
2139.74135,1.79364
2137.67995,1.79378
2135.61854,1.79109
2133.55713,1.78494
2131.49572,1.77760
2129.43431,1.76791
2127.37291,1.75296
2125.31150,1.73385
2123.25009,1.71230
2121.18868,1.68935
2119.12728,1.66703
2117.06587,1.64671
2115.00446,1.62915
2112.94305,1.61516
2110.88164,1.60453
2108.82024,1.59568
2106.75883,1.58847
2104.69742,1.58300
2102.63601,1.57785
2100.57461,1.57285
2098.51320,1.56870
2096.45179,1.56502
2094.39038,1.56184
2092.32897,1.55961
2090.26757,1.55810
2088.20616,1.55740
2086.14475,1.55729
2084.08334,1.55717
2082.02193,1.55706
2079.96053,1.55711
2077.89912,1.55709
2075.83771,1.55678
2073.77630,1.55637
2071.71490,1.55586
2069.65349,1.55585
2067.59208,1.55755
2065.53067,1.55998
2063.46926,1.56112
2061.40786,1.56194
2059.34645,1.56313
2057.28504,1.56315
2055.22363,1.56227
2053.16222,1.56251
2051.10082,1.56412
2049.03941,1.56576
2046.97800,1.56685
2044.91659,1.56750
2042.85519,1.56825
2040.79378,1.56940
2038.73237,1.57023
2036.67096,1.57063
2034.60955,1.57167
2032.54815,1.57353
2030.48674,1.57512
2028.42533,1.57604
2026.36392,1.57666
2024.30251,1.57721
2022.24111,1.57770
2020.17970,1.57858
2018.11829,1.58043
2016.05688,1.58160
2013.99548,1.58099
2011.93407,1.58075
2009.87266,1.58101
2007.81125,1.58022
2005.74984,1.57907
2003.68844,1.57876
2001.62703,1.57903
1999.56562,1.57911
1997.50421,1.57887
1995.44280,1.57970
1993.38140,1.58186
1991.31999,1.58280
1989.25858,1.58176
1987.19717,1.58030
1985.13577,1.57954
1983.07436,1.57986
1981.01295,1.58052
1978.95154,1.58105
1976.89013,1.58165
1974.82873,1.58295
1972.76732,1.58632
1970.70591,1.59305
1968.64450,1.60492
1966.58309,1.62600
1964.52169,1.66115
1962.46028,1.70106
1960.39887,1.71616
1958.33746,1.69413
1956.27606,1.65854
1954.21465,1.63081
1952.15324,1.61576
1950.09183,1.61062
1948.03042,1.61141
1945.96902,1.61525
1943.90761,1.61940
1941.84620,1.62050
1939.78479,1.61980
1937.72338,1.62130
1935.66198,1.62447
1933.60057,1.62770
1931.53916,1.63062
1929.47775,1.63260
1927.41635,1.63468
1925.35494,1.63930
1923.29353,1.64554
1921.23212,1.65034
1919.17071,1.65475
1917.10931,1.65869
1915.04790,1.66071
1912.98649,1.66368
1910.92508,1.66918
1908.86367,1.67496
1906.80227,1.67931
1904.74086,1.68279
1902.67945,1.68651
1900.61804,1.69207
1898.55664,1.69955
1896.49523,1.70665
1894.43382,1.71197
1892.37241,1.71867
1890.31100,1.72747
1888.24960,1.73357
1886.18819,1.73818
1884.12678,1.74553
1882.06537,1.75530
1880.00396,1.76516
1877.94256,1.77327
1875.88115,1.78133
1873.81974,1.79125
1871.75833,1.80371
1869.69693,1.81845
1867.63552,1.82923
1865.57411,1.83442
1863.51270,1.84002
1861.45129,1.84815
1859.38989,1.85840
1857.32848,1.86964
1855.26707,1.88088
1853.20566,1.89170
1851.14425,1.90273
1849.08285,1.91524
1847.02144,1.92909
1844.96003,1.94504
1842.89862,1.96073
1840.83722,1.97357
1838.77581,1.98643
1836.71440,1.99834
1834.65299,2.00877
1832.59158,2.02283
1830.53018,2.04320
1828.46877,2.06075
1826.40736,2.07399
1824.34595,2.08915
1822.28454,2.10205
1820.22314,2.11313
1818.16173,2.12724
1816.10032,2.14401
1814.03891,2.16158
1811.97751,2.18448
1809.91610,2.21362
1807.85469,2.24307
1805.79328,2.27375
1803.73187,2.30698
1801.67047,2.33097
1799.60906,2.32818
1797.54765,2.30599
1795.48624,2.28471
1793.42483,2.26529
1791.36343,2.23850
1789.30202,2.21507
1787.24061,2.20505
1785.17920,2.20532
1783.11780,2.20953
1781.05639,2.21016
1778.99498,2.20565
1776.93357,2.20307
1774.87216,2.20571
1772.81076,2.21156
1770.74935,2.21769
1768.68794,2.21988
1766.62653,2.22147
1764.56512,2.22810
1762.50372,2.23757
1760.44231,2.24461
1758.38090,2.24882
1756.31949,2.25110
1754.25809,2.25433
1752.19668,2.26262
1750.13527,2.27734
1748.07386,2.29087
1746.01245,2.29350
1743.95105,2.29256
1741.88964,2.29313
1739.82823,2.29358
1737.76682,2.29846
1735.70541,2.30618
1733.64401,2.30930
1731.58260,2.30934
1729.52119,2.31128
1727.45978,2.31259
1725.39838,2.31413
1723.33697,2.31813
1721.27556,2.32906
1719.21415,2.34433
1717.15274,2.34422
1715.09134,2.32875
1713.02993,2.31957
1710.96852,2.32126
1708.90711,2.33106
1706.84570,2.33888
1704.78430,2.33617
1702.72289,2.33521
1700.66148,2.34341
1698.60007,2.35160
1696.53867,2.35484
1694.47726,2.35265
1692.41585,2.34935
1690.35444,2.35406
1688.29303,2.36740
1686.23163,2.37904
1684.17022,2.38514
1682.10881,2.38609
1680.04740,2.39262
1677.98599,2.40407
1675.92459,2.41058
1673.86318,2.40762
1671.80177,2.40746
1669.74036,2.41279
1667.67896,2.41484
1665.61755,2.41926
1663.55614,2.43322
1661.49473,2.45143
1659.43332,2.45827
1657.37192,2.46432
1655.31051,2.48338
1653.24910,2.50751
1651.18769,2.50421
1649.12628,2.49642
1647.06488,2.48710
1645.00347,2.48367
1642.94206,2.49313
1640.88065,2.49557
1638.81925,2.48927
1636.75784,2.48450
1634.69643,2.48529
1632.63502,2.49218
1630.57361,2.50473
1628.51221,2.50793
1626.45080,2.50365
1624.38939,2.50086
1622.32798,2.49578
1620.26657,2.48433
1618.20517,2.46446
1616.14376,2.44504
1614.08235,2.43690
1612.02094,2.43184
1609.95954,2.42339
1607.89813,2.41197
1605.83672,2.39907
1603.77531,2.38970
1601.71390,2.37414
1599.65250,2.35559
1597.59109,2.34113
1595.52968,2.33209
1593.46827,2.32503
1591.40686,2.31052
1589.34546,2.28897
1587.28405,2.26752
1585.22264,2.24534
1583.16123,2.21287
1581.09983,2.17586
1579.03842,2.14152
1576.97701,2.10028
1574.91560,2.04078
1572.85419,1.99204
1570.79279,1.94837
1568.73138,1.89886
1566.66997,1.85483
1564.60856,1.81275
1562.54715,1.77826
1560.48575,1.74144
1558.42434,1.65562
1556.36293,1.57375
1554.30152,1.51189
1552.24012,1.44581
1550.17871,1.37453
1548.11730,1.30585
1546.05589,1.24982
1543.99448,1.19925
1541.93308,1.14885
1539.87167,1.08595
1537.81026,1.03946
1535.74885,1.01970
1533.68744,1.00069
1531.62604,0.97869
1529.56463,0.96559
1527.50322,0.95723
1525.44181,0.94845
1523.38041,0.94069
1521.31900,0.93017
1519.25759,0.91987
1517.19618,0.91368
1515.13477,0.90719
1513.07337,0.90334
1511.01196,0.90628
1508.95055,0.91329
1506.88914,0.90959
1504.82773,0.89447
1502.76633,0.89086
1500.70492,0.89389
1498.64351,0.89678
1496.58210,0.89563
1494.52070,0.89434
1492.45929,0.89931
1490.39788,0.90737
1488.33647,0.90904
1486.27506,0.90645
1484.21366,0.90779
1482.15225,0.91264
1480.09084,0.91788
1478.02943,0.92361
1475.96802,0.93140
1473.90662,0.93806
1471.84521,0.93826
1469.78380,0.93690
1467.72239,0.94009
1465.66099,0.94508
1463.59958,0.94797
1461.53817,0.95248
1459.47676,0.96141
1457.41535,0.96849
1455.35395,0.96654
1453.29254,0.96577
1451.23113,0.96871
1449.16972,0.97317
1447.10831,0.97618
1445.04691,0.97780
1442.98550,0.98083
1440.92409,0.98581
1438.86268,0.99235
1436.80128,0.99697
1434.73987,0.99709
1432.67846,0.99861
1430.61705,1.00179
1428.55564,1.00352
1426.49424,1.00626
1424.43283,1.01066
1422.37142,1.01468
1420.31001,1.01893
1418.24860,1.02032
1416.18720,1.01746
1414.12579,1.01577
1412.06438,1.01615
1410.00297,1.01801
1407.94157,1.02392
1405.88016,1.03668
1403.81875,1.05327
1401.75734,1.06847
1399.69593,1.08227
1397.63453,1.09479
1395.57312,1.10722
1393.51171,1.12010
1391.45030,1.13421
1389.38889,1.15223
1387.32749,1.17172
1385.26608,1.18666
1383.20467,1.19902
1381.14326,1.21229
1379.08186,1.22563
1377.02045,1.23898
1374.95904,1.25199
1372.89763,1.26177
1370.83622,1.26925
1368.77482,1.27754
1366.71341,1.28626
1364.65200,1.29650
1362.59059,1.30611
1360.52918,1.31054
1358.46778,1.31375
1356.40637,1.31951
1354.34496,1.32637
1352.28355,1.33288
1350.22215,1.33901
1348.16074,1.34433
1346.09933,1.34974
1344.03792,1.35638
1341.97651,1.36505
1339.91511,1.37416
1337.85370,1.37918
1335.79229,1.38033
1333.73088,1.38187
1331.66947,1.38532
1329.60807,1.38975
1327.54666,1.39438
1325.48525,1.39924
1323.42384,1.40462
1321.36244,1.41027
1319.30103,1.41535
1317.23962,1.41889
1315.17821,1.42184
1313.11680,1.42418
1311.05540,1.42541
1308.99399,1.42677
1306.93258,1.42871
1304.87117,1.43069
1302.80976,1.43248
1300.74836,1.43430
1298.68695,1.43641
1296.62554,1.43862
1294.56413,1.44100
1292.50273,1.44379
1290.44132,1.44660
1288.37991,1.44950
1286.31850,1.45285
1284.25709,1.45678
1282.19569,1.46034
1280.13428,1.46218
1278.07287,1.46277
1276.01146,1.46408
1273.95005,1.46709
1271.88865,1.47131
1269.82724,1.47553
1267.76583,1.47835
1265.70442,1.48019
1263.64302,1.48195
1261.58161,1.48328
1259.52020,1.48435
1257.45879,1.48562
1255.39738,1.48672
1253.33598,1.48796
1251.27457,1.49009
1249.21316,1.49364
1247.15175,1.49813
1245.09034,1.50238
1243.02894,1.50574
1240.96753,1.50826
1238.90612,1.51012
1236.84471,1.51190
1234.78331,1.51428
1232.72190,1.51631
1230.66049,1.51738
1228.59908,1.51834
1226.53767,1.52027
1224.47627,1.52242
1222.41486,1.52371
1220.35345,1.52506
1218.29204,1.52740
1216.23063,1.53052
1214.16923,1.53371
1212.10782,1.53692
1210.04641,1.54031
1207.98500,1.54338
1205.92360,1.54547
1203.86219,1.54749
1201.80078,1.55065
1199.73937,1.55434
1197.67796,1.55786
1195.61656,1.56158
1193.55515,1.56644
1191.49374,1.57231
1189.43233,1.57690
1187.37092,1.57940
1185.30952,1.58191
1183.24811,1.58521
1181.18670,1.58844
1179.12529,1.59110
1177.06389,1.59285
1175.00248,1.59352
1172.94107,1.59381
1170.87966,1.59525
1168.81825,1.59738
1166.75685,1.59809
1164.69544,1.59812
1162.63403,1.59863
1160.57262,1.59890
1158.51121,1.59835
1156.44981,1.59704
1154.38840,1.59614
1152.32699,1.59646
1150.26558,1.59713
1148.20418,1.59756
1146.14277,1.59832
1144.08136,1.59996
1142.01995,1.60228
1139.95854,1.60418
1137.89714,1.60474
1135.83573,1.60506
1133.77432,1.60723
1131.71291,1.61086
1129.65150,1.61423
1127.59010,1.61756
1125.52869,1.62202
1123.46728,1.62738
1121.40587,1.63257
1119.34447,1.63564
1117.28306,1.63674
1115.22165,1.63926
1113.16024,1.64405
1111.09883,1.64890
1109.03743,1.65132
1106.97602,1.65171
1104.91461,1.65291
1102.85320,1.65526
1100.79179,1.65842
1098.73039,1.66222
1096.66898,1.66486
1094.60757,1.66568
1092.54616,1.66533
1090.48476,1.66495
1088.42335,1.66596
1086.36194,1.66795
1084.30053,1.67008
1082.23912,1.67238
1080.17772,1.67429
1078.11631,1.67521
1076.05490,1.67632
1073.99349,1.67788
1071.93208,1.67888
1069.87068,1.67874
1067.80927,1.67804
1065.74786,1.67923
1063.68645,1.68220
1061.62505,1.68404
1059.56364,1.68435
1057.50223,1.68479
1055.44082,1.68575
1053.37941,1.68742
1051.31801,1.68909
1049.25660,1.68965
1047.19519,1.69058
1045.13378,1.69214
1043.07238,1.69197
1041.01097,1.69032
1038.94956,1.68881
1036.88815,1.68924
1034.82674,1.69209
1032.76534,1.69525
1030.70393,1.69727
1028.64252,1.69667
1026.58111,1.69533
1024.51970,1.69524
1022.45830,1.69535
1020.39689,1.69685
1018.33548,1.69948
1016.27407,1.70079
1014.21267,1.70027
1012.15126,1.69851
1010.08985,1.69741
1008.02844,1.69900
1005.96703,1.70209
1003.90563,1.70339
1001.84422,1.70103
999.78281,1.69880
997.72140,1.70017
995.65999,1.70249
993.59859,1.70291
991.53718,1.70146
989.47577,1.69999
987.41436,1.69987
985.35296,1.70057
983.29155,1.70111
981.23014,1.70073
979.16873,1.69926
977.10732,1.69746
975.04592,1.69615
972.98451,1.69514
970.92310,1.69417
968.86169,1.69430
966.80028,1.69555
964.73888,1.69659
962.67747,1.69693
960.61606,1.69682
958.55465,1.69810
956.49325,1.70073
954.43184,1.70193
952.37043,1.70207
950.30902,1.70361
948.24761,1.70645
946.18621,1.70994
944.12480,1.71360
942.06339,1.71598
940.00198,1.71653
937.94057,1.71603
935.87917,1.71557
933.81776,1.71584
931.75635,1.71790
929.69494,1.72082
927.63354,1.72240
925.57213,1.72364
923.51072,1.72689
921.44931,1.73099
919.38790,1.73344
917.32650,1.73535
915.26509,1.73616
913.20368,1.73517
911.14227,1.73546
909.08086,1.73689
907.01946,1.73723
904.95805,1.73819
902.89664,1.74233
900.83523,1.74829
898.77383,1.75747
896.71242,1.77317
894.65101,1.79448
892.58960,1.82572
890.52819,1.88092
888.46679,1.96421
886.40538,2.00232
884.34397,1.89817
882.28256,1.72310
880.22115,1.56714
878.15975,1.46017
876.09834,1.40247
874.03693,1.37956
871.97552,1.38257
869.91412,1.41034
867.85271,1.45548
865.79130,1.50110
863.72989,1.53610
861.66848,1.56246
859.60708,1.58411
857.54567,1.60309
855.48426,1.61991
853.42285,1.63530
851.36144,1.65165
849.30004,1.66294
847.23863,1.66283
845.17722,1.66118
843.11581,1.66561
841.05441,1.67155
838.99300,1.67586
836.93159,1.67963
834.87018,1.68374
832.80877,1.68815
830.74737,1.69140
828.68596,1.69289
826.62455,1.69400
824.56314,1.69670
822.50173,1.70293
820.44033,1.71008
818.37892,1.71345
816.31751,1.71541
814.25610,1.72079
812.19470,1.72736
810.13329,1.73145
808.07188,1.73301
806.01047,1.73402
803.94906,1.73548
801.88766,1.73695
799.82625,1.73874
797.76484,1.73858
795.70343,1.73792
793.64202,1.74079
791.58062,1.74383
789.51921,1.74402
787.45780,1.74435
785.39639,1.74696
783.33499,1.75039
781.27358,1.75325
779.21217,1.75617
777.15076,1.76006
775.08935,1.76388
773.02795,1.76665
770.96654,1.76890
768.90513,1.76941
766.84372,1.76741
764.78231,1.76619
762.72091,1.76723
760.65950,1.76898
758.59809,1.77049
756.53668,1.77247
754.47528,1.77403
752.41387,1.77217
750.35246,1.76966
748.29105,1.77181
746.22964,1.77843
744.16824,1.78605
742.10683,1.79149
740.04542,1.79690
737.98401,1.80544
735.92260,1.81314
733.86120,1.81775
731.79979,1.82315
729.73838,1.83323
727.67697,1.84948
725.61557,1.86869
723.55416,1.88816
721.49275,1.91570
719.43134,1.95838
717.36993,1.98528
715.30853,1.90882
713.24712,1.75572
711.18571,1.65686
709.12430,1.64450
707.06289,1.67477
705.00149,1.70706
702.94008,1.73272
700.87867,1.75080
698.81726,1.75754
696.75586,1.75675
694.69445,1.75944
692.63304,1.76720
690.57163,1.77092
688.51022,1.76908
686.44882,1.76951
684.38741,1.77465
682.32600,1.78004
680.26459,1.77958
678.20318,1.78085
676.14178,1.79410
674.08037,1.80831
672.01896,1.81090
669.95755,1.80721
667.89615,1.80672
665.83474,1.80860
663.77333,1.81005
661.71192,1.81629
659.65051,1.82548
657.58911,1.82855
655.52770,1.82849
653.46629,1.83390
651.40488,1.84170
649.34347,1.84640
647.28207,1.85316
645.22066,1.86206
643.15925,1.86251
641.09784,1.85457
639.03644,1.84857
636.97503,1.84884
634.91362,1.85588
632.85221,1.86982
630.79080,1.88018
628.72940,1.87871
626.66799,1.87526
624.60658,1.87768
622.54517,1.88277
620.48376,1.88813
618.42236,1.89327
616.36095,1.89459
614.29954,1.89592
612.23813,1.90380
610.17673,1.91113
608.11532,1.91011
606.05391,1.90585
603.99250,1.90891
601.93109,1.92111
599.86969,1.93443
597.80828,1.94127
595.74687,1.93916
593.68546,1.93594
591.62405,1.93978
589.56265,1.94538
587.50124,1.94978
585.43983,1.95432
583.37842,1.95734
581.31702,1.95898
579.25561,1.96424
577.19420,1.97678
575.13279,1.98804
573.07138,1.98657
571.00998,1.97406
568.94857,1.96569
566.88716,1.96825
564.82575,1.97355
562.76434,1.97731
560.70294,1.98345
558.64153,1.99964
556.58012,2.02131
554.51871,2.03172
552.45731,2.02876
550.39590,2.01765
548.33449,2.00170
546.27308,1.99751
544.21167,2.01156
542.15027,2.03194
540.08886,2.04959
538.02745,2.05892
535.96604,2.06487
533.90463,2.07275
531.84323,2.07653
529.78182,2.08295
527.72041,2.09515
525.65900,2.09756
523.59760,2.09894
521.53619,2.12402
519.47478,2.15191
517.41337,2.16082
515.35196,2.15951
513.29056,2.14509
511.22915,2.14781
509.16774,2.17889
507.10633,2.21525
505.04492,2.25102
502.98352,2.27184
500.92211,2.25308
498.86070,2.21775
496.79929,2.20889
494.73789,2.21307
492.67648,2.22228
490.61507,2.25084
488.55366,2.26935
486.49225,2.28241
484.43085,2.33088
482.36944,2.39040
480.30803,2.39666
478.24662,2.39607
476.18521,2.42718
474.12381,2.42937
472.06240,2.39894
470.00099,2.39266
467.93958,2.37743
465.87818,2.36404
463.81677,2.39991
461.75536,2.45420
459.69395,2.53041
457.63254,2.62693
455.57114,2.58977
453.50973,2.52150
451.44832,2.56300
449.38691,2.71725
447.32550,2.72352
445.26410,2.61241
443.20269,2.62123
441.14128,2.76066
439.07987,2.83989
437.01847,2.73324
434.95706,2.66805
432.89565,2.75710
430.83424,2.81020
428.77283,2.73196
426.71143,2.66072
424.65002,2.58623
422.58861,2.67712
420.52720,2.70080
418.46579,2.73546
416.40439,2.57700
414.34298,2.71840
412.28157,2.66116
410.22016,2.35944
408.15876,2.29766
406.09735,2.28268
404.03594,2.16603
401.97453,2.01083
399.91312,1.87296
