3997.06983,1.56679
3995.00842,1.56619
3992.94702,1.56514
3990.88561,1.56528
3988.82420,1.56688
3986.76279,1.56873
3984.70139,1.56902
3982.63998,1.56871
3980.57857,1.57040
3978.51716,1.57366
3976.45575,1.57529
3974.39435,1.57531
3972.33294,1.57637
3970.27153,1.57747
3968.21012,1.57702
3966.14871,1.57612
3964.08731,1.57629
3962.02590,1.57858
3959.96449,1.58163
3957.90308,1.58367
3955.84168,1.58462
3953.78027,1.58478
3951.71886,1.58491
3949.65745,1.58424
3947.59604,1.58232
3945.53464,1.58190
3943.47323,1.58341
3941.41182,1.58454
3939.35041,1.58502
3937.28900,1.58647
3935.22760,1.58957
3933.16619,1.59145
3931.10478,1.58985
3929.04337,1.58840
3926.98197,1.58907
3924.92056,1.58877
3922.85915,1.58797
3920.79774,1.58980
3918.73633,1.59126
3916.67493,1.59011
3914.61352,1.58863
3912.55211,1.58923
3910.49070,1.59292
3908.42929,1.59674
3906.36789,1.59818
3904.30648,1.59842
3902.24507,1.59828
3900.18366,1.59757
3898.12226,1.59613
3896.06085,1.59510
3893.99944,1.59625
3891.93803,1.59791
3889.87662,1.59853
3887.81522,1.60236
3885.75381,1.60926
3883.69240,1.61251
3881.63099,1.61068
3879.56958,1.60659
3877.50818,1.60565
3875.44677,1.60933
3873.38536,1.61245
3871.32395,1.61292
3869.26255,1.61234
3867.20114,1.61306
3865.13973,1.61620
3863.07832,1.61818
3861.01691,1.61847
3858.95551,1.61995
3856.89410,1.62180
3854.83269,1.62039
3852.77128,1.61581
3850.70987,1.61709
3848.64847,1.62084
3846.58706,1.62203
3844.52565,1.62274
3842.46424,1.62504
3840.40284,1.62673
3838.34143,1.62661
3836.28002,1.62682
3834.21861,1.63013
3832.15720,1.63414
3830.09580,1.63538
3828.03439,1.63582
3825.97298,1.63625
3823.91157,1.63515
3821.85016,1.63378
3819.78876,1.63372
3817.72735,1.63594
3815.66594,1.63969
3813.60453,1.64307
3811.54313,1.64565
3809.48172,1.64730
3807.42031,1.64731
3805.35890,1.64644
3803.29749,1.64701
3801.23609,1.64888
3799.17468,1.65270
3797.11327,1.65662
3795.05186,1.65765
3792.99045,1.65897
3790.92905,1.66291
3788.86764,1.66709
3786.80623,1.66976
3784.74482,1.67015
3782.68342,1.67000
3780.62201,1.67250
3778.56060,1.67542
3776.49919,1.67706
3774.43778,1.68076
3772.37638,1.68643
3770.31497,1.69064
3768.25356,1.69297
3766.19215,1.69610
3764.13074,1.69983
3762.06934,1.70401
3760.00793,1.70981
3757.94652,1.71557
3755.88511,1.71890
3753.82371,1.71991
3751.76230,1.71878
3749.70089,1.71900
3747.63948,1.72335
3745.57807,1.72873
3743.51667,1.73359
3741.45526,1.73906
3739.39385,1.74453
3737.33244,1.74918
3735.27103,1.75358
3733.20963,1.75874
3731.14822,1.76622
3729.08681,1.77456
3727.02540,1.78261
3724.96400,1.79034
3722.90259,1.79595
3720.84118,1.79865
3718.77977,1.80042
3716.71836,1.80445
3714.65696,1.81298
3712.59555,1.82448
3710.53414,1.83117
3708.47273,1.83305
3706.41132,1.83822
3704.34992,1.84655
3702.28851,1.85430
3700.22710,1.85947
3698.16569,1.86406
3696.10429,1.87050
3694.04288,1.87993
3691.98147,1.89265
3689.92006,1.90533
3687.85865,1.90845
3685.79725,1.90615
3683.73584,1.91079
3681.67443,1.91976
3679.61302,1.92502
3677.55161,1.93080
3675.49021,1.94362
3673.42880,1.95437
3671.36739,1.96131
3669.30598,1.96895
3667.24458,1.97475
3665.18317,1.97804
3663.12176,1.97880
3661.06035,1.98051
3658.99894,1.98600
3656.93754,1.99433
3654.87613,2.00277
3652.81472,2.01063
3650.75331,2.02314
3648.69190,2.03067
3646.63050,2.02209
3644.56909,2.01523
3642.50768,2.01429
3640.44627,2.01503
3638.38487,2.01548
3636.32346,2.01214
3634.26205,2.00716
3632.20064,2.00653
3630.13923,2.00621
3628.07783,2.00099
3626.01642,1.99839
3623.95501,2.00096
3621.89360,2.00367
3619.83219,2.00381
3617.77079,2.00355
3615.70938,2.00333
3613.64797,2.00025
3611.58656,1.99628
3609.52516,1.99408
3607.46375,1.98918
3605.40234,1.98202
3603.34093,1.97729
3601.27952,1.97558
3599.21812,1.97576
3597.15671,1.97439
3595.09530,1.97029
3593.03389,1.96862
3590.97248,1.97183
3588.91108,1.97545
3586.84967,1.97060
3584.78826,1.96045
3582.72685,1.95484
3580.66545,1.95245
3578.60404,1.95224
3576.54263,1.95418
3574.48122,1.95574
3572.41981,1.95745
3570.35841,1.96380
3568.29700,1.97376
3566.23559,1.97326
3564.17418,1.96052
3562.11277,1.95297
3560.05137,1.95457
3557.98996,1.95568
3555.92855,1.95231
3553.86714,1.95087
3551.80574,1.95401
3549.74433,1.95663
3547.68292,1.95632
3545.62151,1.95453
3543.56010,1.95117
3541.49870,1.94667
3539.43729,1.94528
3537.37588,1.94978
3535.31447,1.95360
3533.25306,1.95340
3531.19166,1.95410
3529.13025,1.95529
3527.06884,1.95439
3525.00743,1.95353
3522.94603,1.95152
3520.88462,1.94542
3518.82321,1.94004
3516.76180,1.94003
3514.70039,1.94397
3512.63899,1.94795
3510.57758,1.94930
3508.51617,1.94760
3506.45476,1.94522
3504.39335,1.94683
3502.33195,1.94930
3500.27054,1.94706
3498.20913,1.94313
3496.14772,1.93982
3494.08632,1.93794
3492.02491,1.93832
3489.96350,1.93741
3487.90209,1.93404
3485.84068,1.93323
3483.77928,1.93607
3481.71787,1.93671
3479.65646,1.93171
3477.59505,1.92548
3475.53364,1.92450
3473.47224,1.92799
3471.41083,1.92992
3469.34942,1.93009
3467.28801,1.93232
3465.22661,1.93449
3463.16520,1.93128
3461.10379,1.92397
3459.04238,1.91914
3456.98097,1.92003
3454.91957,1.92251
3452.85816,1.92241
3450.79675,1.92115
3448.73534,1.91925
3446.67393,1.91622
3444.61253,1.91468
3442.55112,1.91374
3440.48971,1.90842
3438.42830,1.90159
3436.36690,1.89847
3434.30549,1.89988
3432.24408,1.90378
3430.18267,1.90429
3428.12126,1.90216
3426.05986,1.90218
3423.99845,1.90339
3421.93704,1.90328
3419.87563,1.90030
3417.81422,1.89651
3415.75282,1.89492
3413.69141,1.89416
3411.63000,1.89225
3409.56859,1.89051
3407.50719,1.88994
3405.44578,1.88837
3403.38437,1.88447
3401.32296,1.88054
3399.26155,1.87936
3397.20015,1.88141
3395.13874,1.88404
3393.07733,1.88371
3391.01592,1.88125
3388.95451,1.88048
3386.89311,1.88070
3384.83170,1.87810
3382.77029,1.87324
3380.70888,1.87011
3378.64748,1.87028
3376.58607,1.87201
3374.52466,1.87225
3372.46325,1.87072
3370.40184,1.87056
3368.34044,1.87126
3366.27903,1.87006
3364.21762,1.86781
3362.15621,1.86702
3360.09480,1.86701
3358.03340,1.86519
3355.97199,1.86116
3353.91058,1.85710
3351.84917,1.85628
3349.78777,1.85754
3347.72636,1.85755
3345.66495,1.85666
3343.60354,1.85652
3341.54213,1.85640
3339.48073,1.85523
3337.41932,1.85470
3335.35791,1.85488
3333.29650,1.85395
3331.23509,1.85277
3329.17369,1.85194
3327.11228,1.84929
3325.05087,1.84536
3322.98946,1.84293
3320.92806,1.84273
3318.86665,1.84481
3316.80524,1.84794
3314.74383,1.84982
3312.68242,1.84951
3310.62102,1.84786
3308.55961,1.84613
3306.49820,1.84520
3304.43679,1.84470
3302.37538,1.84230
3300.31398,1.83888
3298.25257,1.83935
3296.19116,1.84272
3294.12975,1.84449
3292.06835,1.84389
3290.00694,1.84097
3287.94553,1.83912
3285.88412,1.84092
3283.82271,1.84315
3281.76131,1.84277
3279.69990,1.83925
3277.63849,1.83506
3275.57708,1.83277
3273.51567,1.83186
3271.45427,1.83181
3269.39286,1.83218
3267.33145,1.83187
3265.27004,1.83138
3263.20864,1.83169
3261.14723,1.83140
3259.08582,1.82948
3257.02441,1.82784
3254.96300,1.82731
3252.90160,1.82825
3250.84019,1.82901
3248.77878,1.82624
3246.71737,1.82214
3244.65596,1.82041
3242.59456,1.82178
3240.53315,1.82498
3238.47174,1.82678
3236.41033,1.82654
3234.34893,1.82678
3232.28752,1.82696
3230.22611,1.82544
3228.16470,1.82278
3226.10329,1.81963
3224.04189,1.81782
3221.98048,1.81884
3219.91907,1.82068
3217.85766,1.82044
3215.79625,1.81895
3213.73485,1.81809
3211.67344,1.81711
3209.61203,1.81597
3207.55062,1.81482
3205.48922,1.81348
3203.42781,1.81214
3201.36640,1.81112
3199.30499,1.81216
3197.24358,1.81403
3195.18218,1.81320
3193.12077,1.81087
3191.05936,1.80966
3188.99795,1.80869
3186.93654,1.80639
3184.87514,1.80434
3182.81373,1.80464
3180.75232,1.80592
3178.69091,1.80591
3176.62951,1.80472
3174.56810,1.80354
3172.50669,1.80329
3170.44528,1.80414
3168.38387,1.80481
3166.32247,1.80384
3164.26106,1.80191
3162.19965,1.80134
3160.13824,1.80270
3158.07683,1.80413
3156.01543,1.80352
3153.95402,1.80125
3151.89261,1.80074
3149.83120,1.80216
3147.76980,1.80252
3145.70839,1.80275
3143.64698,1.80446
3141.58557,1.80579
3139.52416,1.80558
3137.46276,1.80440
3135.40135,1.80352
3133.33994,1.80291
3131.27853,1.80212
3129.21713,1.80267
3127.15572,1.80379
3125.09431,1.80380
3123.03290,1.80291
3120.97149,1.80215
3118.91009,1.80257
3116.84868,1.80242
3114.78727,1.80125
3112.72586,1.80139
3110.66445,1.80313
3108.60305,1.80483
3106.54164,1.80486
3104.48023,1.80284
3102.41882,1.80077
3100.35742,1.80080
3098.29601,1.80227
3096.23460,1.80392
3094.17319,1.80479
3092.11178,1.80348
3090.05038,1.80145
3087.98897,1.80102
3085.92756,1.80172
3083.86615,1.80212
3081.80474,1.80170
3079.74334,1.80153
3077.68193,1.80143
3075.62052,1.80032
3073.55911,1.79979
3071.49771,1.80040
3069.43630,1.80048
3067.37489,1.80045
3065.31348,1.80113
3063.25207,1.80049
3061.19067,1.79800
3059.12926,1.79648
3057.06785,1.79631
3055.00644,1.79604
3052.94503,1.79588
3050.88363,1.79594
3048.82222,1.79652
3046.76081,1.79725
3044.69940,1.79665
3042.63800,1.79569
3040.57659,1.79614
3038.51518,1.79671
3036.45377,1.79599
3034.39236,1.79420
3032.33096,1.79227
3030.26955,1.79185
3028.20814,1.79260
3026.14673,1.79230
3024.08532,1.79066
3022.02392,1.79041
3019.96251,1.79145
3017.90110,1.79146
3015.83969,1.79131
3013.77829,1.79129
3011.71688,1.79108
3009.65547,1.79173
3007.59406,1.79313
3005.53265,1.79372
3003.47125,1.79212
3001.40984,1.78977
2999.34843,1.78897
2997.28702,1.78903
2995.22561,1.78893
2993.16421,1.78915
2991.10280,1.79000
2989.04139,1.79017
2986.97998,1.78880
2984.91858,1.78829
2982.85717,1.78894
2980.79576,1.78880
2978.73435,1.78812
2976.67294,1.78685
2974.61154,1.78544
2972.55013,1.78430
2970.48872,1.78332
2968.42731,1.78308
2966.36590,1.78325
2964.30450,1.78393
2962.24309,1.78395
2960.18168,1.78265
2958.12027,1.78283
2956.05887,1.78438
2953.99746,1.78430
2951.93605,1.78374
2949.87464,1.78515
2947.81323,1.78568
2945.75183,1.78316
2943.69042,1.77994
2941.62901,1.77876
2939.56760,1.77972
2937.50619,1.78042
2935.44479,1.77981
2933.38338,1.77869
2931.32197,1.77852
2929.26056,1.77929
2927.19916,1.77877
2925.13775,1.77700
2923.07634,1.77668
2921.01493,1.77838
2918.95352,1.77944
2916.89212,1.77808
2914.83071,1.77709
2912.76930,1.77858
2910.70789,1.77982
2908.64648,1.77926
2906.58508,1.77829
2904.52367,1.77800
2902.46226,1.77679
2900.40085,1.77393
2898.33945,1.77269
2896.27804,1.77387
2894.21663,1.77422
2892.15522,1.77361
2890.09381,1.77474
2888.03241,1.77541
2885.97100,1.77372
2883.90959,1.77268
2881.84818,1.77275
2879.78677,1.77239
2877.72537,1.77262
2875.66396,1.77306
2873.60255,1.77213
2871.54114,1.77061
2869.47974,1.76974
2867.41833,1.76997
2865.35692,1.76991
2863.29551,1.76884
2861.23410,1.76846
2859.17270,1.76974
2857.11129,1.77183
2855.04988,1.77206
2852.98847,1.76965
2850.92706,1.76697
2848.86566,1.76596
2846.80425,1.76679
2844.74284,1.76745
2842.68143,1.76570
2840.62003,1.76286
2838.55862,1.76203
2836.49721,1.76276
2834.43580,1.76305
2832.37439,1.76315
2830.31299,1.76322
2828.25158,1.76280
2826.19017,1.76216
2824.12876,1.76198
2822.06735,1.76141
2820.00595,1.75994
2817.94454,1.75921
2815.88313,1.75890
2813.82172,1.75779
2811.76032,1.75705
2809.69891,1.75783
2807.63750,1.75825
2805.57609,1.75676
2803.51468,1.75497
2801.45328,1.75356
2799.39187,1.75213
2797.33046,1.75187
2795.26905,1.75251
2793.20764,1.75186
2791.14624,1.75182
2789.08483,1.75348
2787.02342,1.75309
2784.96201,1.75113
2782.90061,1.75049
2780.83920,1.75069
2778.77779,1.75117
2776.71638,1.75138
2774.65497,1.75171
2772.59357,1.75248
2770.53216,1.75211
2768.47075,1.75079
2766.40934,1.74931
2764.34793,1.74724
2762.28653,1.74533
2760.22512,1.74481
2758.16371,1.74547
2756.10230,1.74671
2754.04090,1.74716
2751.97949,1.74554
2749.91808,1.74298
2747.85667,1.74133
2745.79526,1.74085
2743.73386,1.73995
2741.67245,1.73822
2739.61104,1.73725
2737.54963,1.73781
2735.48822,1.73847
2733.42682,1.73803
2731.36541,1.73750
2729.30400,1.73815
2727.24259,1.73960
2725.18119,1.73977
2723.11978,1.73821
2721.05837,1.73663
2718.99696,1.73562
2716.93555,1.73501
2714.87415,1.73525
2712.81274,1.73541
2710.75133,1.73434
2708.68992,1.73304
2706.62851,1.73240
2704.56711,1.73233
2702.50570,1.73191
2700.44429,1.73080
2698.38288,1.72982
2696.32148,1.72968
2694.26007,1.73053
2692.19866,1.73175
2690.13725,1.73201
2688.07584,1.73076
2686.01444,1.72915
2683.95303,1.72796
2681.89162,1.72731
2679.83021,1.72763
2677.76880,1.72864
2675.70740,1.72821
2673.64599,1.72570
2671.58458,1.72450
2669.52317,1.72574
2667.46177,1.72594
2665.40036,1.72406
2663.33895,1.72271
2661.27754,1.72270
2659.21613,1.72275
2657.15473,1.72217
2655.09332,1.72113
2653.03191,1.72042
2650.97050,1.71975
2648.90909,1.71872
2646.84769,1.71900
2644.78628,1.72046
2642.72487,1.72110
2640.66346,1.72026
2638.60206,1.71880
2636.54065,1.71872
2634.47924,1.71942
2632.41783,1.71886
2630.35642,1.71754
2628.29502,1.71684
2626.23361,1.71674
2624.17220,1.71668
2622.11079,1.71595
2620.04938,1.71470
2617.98798,1.71497
2615.92657,1.71649
2613.86516,1.71677
2611.80375,1.71594
2609.74235,1.71562
2607.68094,1.71501
2605.61953,1.71346
2603.55812,1.71194
2601.49671,1.71122
2599.43531,1.71158
2597.37390,1.71246
2595.31249,1.71333
2593.25108,1.71338
2591.18967,1.71249
2589.12827,1.71192
2587.06686,1.71155
2585.00545,1.71047
2582.94404,1.70985
2580.88264,1.71092
2578.82123,1.71238
2576.75982,1.71216
2574.69841,1.71091
2572.63700,1.71045
2570.57560,1.71036
2568.51419,1.71073
2566.45278,1.71141
2564.39137,1.71008
2562.32996,1.70761
2560.26856,1.70744
2558.20715,1.70872
2556.14574,1.70932
2554.08433,1.70975
2552.02293,1.71044
2549.96152,1.71099
2547.90011,1.71088
2545.83870,1.71025
2543.77729,1.70984
2541.71589,1.71036
2539.65448,1.71163
2537.59307,1.71263
2535.53166,1.71207
2533.47025,1.71090
2531.40885,1.71074
2529.34744,1.71063
2527.28603,1.71019
2525.22462,1.70929
2523.16322,1.70866
2521.10181,1.70958
2519.04040,1.71089
2516.97899,1.71170
2514.91758,1.71246
2512.85618,1.71381
2510.79477,1.71532
2508.73336,1.71529
2506.67195,1.71427
2504.61054,1.71392
2502.54914,1.71415
2500.48773,1.71459
2498.42632,1.71473
2496.36491,1.71459
2494.30351,1.71472
2492.24210,1.71423
2490.18069,1.71330
2488.11928,1.71339
2486.05787,1.71411
2483.99647,1.71540
2481.93506,1.71727
2479.87365,1.71878
2477.81224,1.71961
2475.75083,1.71922
2473.68943,1.71815
2471.62802,1.71795
2469.56661,1.71821
2467.50520,1.71813
2465.44380,1.71881
2463.38239,1.72039
2461.32098,1.72131
2459.25957,1.72105
2457.19816,1.72100
2455.13676,1.72156
2453.07535,1.72145
2451.01394,1.72146
2448.95253,1.72263
2446.89112,1.72341
2444.82972,1.72317
2442.76831,1.72294
2440.70690,1.72309
2438.64549,1.72380
2436.58409,1.72480
2434.52268,1.72602
2432.46127,1.72775
2430.39986,1.72872
2428.33845,1.72875
2426.27705,1.72890
2424.21564,1.72857
2422.15423,1.72814
2420.09282,1.72937
2418.03141,1.73138
2415.97001,1.73176
2413.90860,1.73072
2411.84719,1.73024
2409.78578,1.73065
2407.72438,1.73111
2405.66297,1.73180
2403.60156,1.73297
2401.54015,1.73427
2399.47874,1.73500
2397.41734,1.73534
2395.35593,1.73602
2393.29452,1.73689
2391.23311,1.73758
2389.17170,1.73808
2387.11030,1.73866
2385.04889,1.74014
2382.98748,1.74224
2380.92607,1.74357
2378.86467,1.74383
2376.80326,1.74314
2374.74185,1.74099
2372.68044,1.73747
2370.61903,1.73396
2368.55763,1.72958
2366.49622,1.72423
2364.43481,1.72164
2362.37340,1.72107
2360.31199,1.72022
2358.25059,1.72010
2356.18918,1.72351
2354.12777,1.73172
2352.06636,1.74114
2350.00496,1.74814
2347.94355,1.75059
2345.88214,1.74603
2343.82073,1.73735
2341.75932,1.73443
2339.69792,1.73736
2337.63651,1.73894
2335.57510,1.73788
2333.51369,1.73678
2331.45228,1.73726
2329.39088,1.73931
2327.32947,1.74257
2325.26806,1.74566
2323.20665,1.74880
2321.14525,1.75266
2319.08384,1.75462
2317.02243,1.75619
2314.96102,1.75957
2312.89961,1.76255
2310.83821,1.76361
2308.77680,1.76340
2306.71539,1.76363
2304.65398,1.76418
2302.59257,1.76302
2300.53117,1.76078
2298.46976,1.75997
2296.40835,1.76094
2294.34694,1.76226
2292.28554,1.76298
2290.22413,1.76370
2288.16272,1.76401
2286.10131,1.76296
2284.03990,1.76233
2281.97850,1.76267
2279.91709,1.76306
2277.85568,1.76420
2275.79427,1.76588
2273.73286,1.76624
2271.67146,1.76491
2269.61005,1.76366
2267.54864,1.76436
2265.48723,1.76653
2263.42583,1.76769
2261.36442,1.76689
2259.30301,1.76634
2257.24160,1.76743
2255.18019,1.76804
2253.11879,1.76733
2251.05738,1.76769
2248.99597,1.76931
2246.93456,1.77046
2244.87315,1.77144
2242.81175,1.77260
2240.75034,1.77329
2238.68893,1.77358
2236.62752,1.77353
2234.56612,1.77368
2232.50471,1.77435
2230.44330,1.77462
2228.38189,1.77505
2226.32048,1.77635
2224.25908,1.77686
2222.19767,1.77613
2220.13626,1.77572
2218.07485,1.77597
2216.01344,1.77604
2213.95204,1.77625
2211.89063,1.77734
2209.82922,1.77856
2207.76781,1.77983
2205.70641,1.78084
2203.64500,1.78035
2201.58359,1.77936
2199.52218,1.77945
2197.46077,1.78039
2195.39937,1.78110
2193.33796,1.78075
2191.27655,1.77990
2189.21514,1.77973
2187.15373,1.78026
2185.09233,1.78085
2183.03092,1.78090
2180.96951,1.78090
2178.90810,1.78152
2176.84670,1.78220
2174.78529,1.78233
2172.72388,1.78208
2170.66247,1.78239
2168.60106,1.78303
2166.53966,1.78375
2164.47825,1.78488
2162.41684,1.78562
2160.35543,1.78596
2158.29402,1.78639
2156.23262,1.78664
2154.17121,1.78657
2152.10980,1.78716
2150.04839,1.78879
2147.98699,1.78991
2145.92558,1.78975
2143.86417,1.78913
2141.80276,1.78925
2139.74135,1.79025
2137.67995,1.79076
2135.61854,1.79015
2133.55713,1.78906
2131.49572,1.78874
2129.43431,1.78933
2127.37291,1.78932
2125.31150,1.78909
2123.25009,1.78985
2121.18868,1.79088
2119.12728,1.79100
2117.06587,1.79061
2115.00446,1.79077
2112.94305,1.79127
2110.88164,1.79186
2108.82024,1.79297
2106.75883,1.79389
2104.69742,1.79376
2102.63601,1.79381
2100.57461,1.79483
2098.51320,1.79599
2096.45179,1.79629
2094.39038,1.79566
2092.32897,1.79445
2090.26757,1.79268
2088.20616,1.79161
2086.14475,1.79204
2084.08334,1.79271
2082.02193,1.79325
2079.96053,1.79391
2077.89912,1.79367
2075.83771,1.79310
2073.77630,1.79330
2071.71490,1.79389
2069.65349,1.79435
2067.59208,1.79469
2065.53067,1.79544
2063.46926,1.79627
2061.40786,1.79703
2059.34645,1.79758
2057.28504,1.79750
2055.22363,1.79715
2053.16222,1.79681
2051.10082,1.79614
2049.03941,1.79557
2046.97800,1.79647
2044.91659,1.79775
2042.85519,1.79844
2040.79378,1.79951
2038.73237,1.79953
2036.67096,1.79848
2034.60955,1.79871
2032.54815,1.80013
2030.48674,1.80210
2028.42533,1.80317
2026.36392,1.80219
2024.30251,1.80161
2022.24111,1.80184
2020.17970,1.80246
2018.11829,1.80448
2016.05688,1.80612
2013.99548,1.80542
2011.93407,1.80324
2009.87266,1.80123
2007.81125,1.80077
2005.74984,1.80229
2003.68844,1.80467
2001.62703,1.80635
1999.56562,1.80650
1997.50421,1.80554
1995.44280,1.80502
1993.38140,1.80607
1991.31999,1.80773
1989.25858,1.80746
1987.19717,1.80564
1985.13577,1.80503
1983.07436,1.80568
1981.01295,1.80653
1978.95154,1.80748
1976.89013,1.80784
1974.82873,1.80745
1972.76732,1.80730
1970.70591,1.80850
1968.64450,1.81061
1966.58309,1.81058
1964.52169,1.80907
1962.46028,1.80886
1960.39887,1.80838
1958.33746,1.80797
1956.27606,1.80920
1954.21465,1.81032
1952.15324,1.81022
1950.09183,1.81001
1948.03042,1.81151
1945.96902,1.81479
1943.90761,1.81774
1941.84620,1.81770
1939.78479,1.81545
1937.72338,1.81430
1935.66198,1.81437
1933.60057,1.81490
1931.53916,1.81587
1929.47775,1.81652
1927.41635,1.81637
1925.35494,1.81701
1923.29353,1.81909
1921.23212,1.82058
1919.17071,1.82175
1917.10931,1.82135
1915.04790,1.81893
1912.98649,1.81839
1910.92508,1.81973
1908.86367,1.82008
1906.80227,1.81983
1904.74086,1.82079
1902.67945,1.82226
1900.61804,1.82417
1898.55664,1.82677
1896.49523,1.82907
1894.43382,1.82977
1892.37241,1.83075
1890.31100,1.83386
1888.24960,1.83508
1886.18819,1.83477
1884.12678,1.83444
1882.06537,1.83266
1880.00396,1.83131
1877.94256,1.83077
1875.88115,1.83090
1873.81974,1.83297
1871.75833,1.83783
1869.69693,1.84394
1867.63552,1.84476
1865.57411,1.84004
1863.51270,1.83775
1861.45129,1.83869
1859.38989,1.83906
1857.32848,1.83870
1855.26707,1.83732
1853.20566,1.83500
1851.14425,1.83549
1849.08285,1.83913
1847.02144,1.84438
1844.96003,1.84941
1842.89862,1.84737
1840.83722,1.84161
1838.77581,1.83914
1836.71440,1.83966
1834.65299,1.84180
1832.59158,1.84605
1830.53018,1.85166
1828.46877,1.85236
1826.40736,1.85031
1824.34595,1.84911
1822.28454,1.84599
1820.22314,1.84338
1818.16173,1.84364
1816.10032,1.84575
1814.03891,1.84891
1811.97751,1.85207
1809.91610,1.85230
1807.85469,1.85018
1805.79328,1.84994
1803.73187,1.85332
1801.67047,1.85720
1799.60906,1.85712
1797.54765,1.85604
1795.48624,1.85825
1793.42483,1.86320
1791.36343,1.86443
1789.30202,1.86029
1787.24061,1.85887
1785.17920,1.86119
1783.11780,1.86442
1781.05639,1.86677
1778.99498,1.86563
1776.93357,1.86429
1774.87216,1.86936
1772.81076,1.87684
1770.74935,1.87477
1768.68794,1.86933
1766.62653,1.86745
1764.56512,1.86892
1762.50372,1.87269
1760.44231,1.87399
1758.38090,1.87429
1756.31949,1.87445
1754.25809,1.87483
1752.19668,1.88167
1750.13527,1.89141
1748.07386,1.89236
1746.01245,1.88824
1743.95105,1.88549
1741.88964,1.88487
1739.82823,1.88661
1737.76682,1.88943
1735.70541,1.89391
1733.64401,1.89985
1731.58260,1.90240
1729.52119,1.90087
1727.45978,1.89731
1725.39838,1.89646
1723.33697,1.89937
1721.27556,1.90472
1719.21415,1.91441
1717.15274,1.92439
1715.09134,1.92405
1713.02993,1.92090
1710.96852,1.92125
1708.90711,1.92325
1706.84570,1.92526
1704.78430,1.92771
1702.72289,1.93264
1700.66148,1.93974
1698.60007,1.94362
1696.53867,1.94283
1694.47726,1.93842
1692.41585,1.93679
1690.35444,1.94004
1688.29303,1.94414
1686.23163,1.95006
1684.17022,1.95536
1682.10881,1.95125
1680.04740,1.94728
1677.98599,1.94710
1675.92459,1.94759
1673.86318,1.94795
1671.80177,1.94987
1669.74036,1.94905
1667.67896,1.94268
1665.61755,1.93906
1663.55614,1.94073
1661.49473,1.94351
1659.43332,1.94257
1657.37192,1.93989
1655.31051,1.93810
1653.24910,1.93220
1651.18769,1.92757
1649.12628,1.93129
1647.06488,1.93228
1645.00347,1.92550
1642.94206,1.92021
1640.88065,1.91804
1638.81925,1.91734
1636.75784,1.91472
1634.69643,1.90594
1632.63502,1.89844
1630.57361,1.89473
1628.51221,1.89112
1626.45080,1.88592
1624.38939,1.88080
1622.32798,1.87648
1620.26657,1.87253
1618.20517,1.86818
1616.14376,1.86325
1614.08235,1.86226
1612.02094,1.86458
1609.95954,1.86561
1607.89813,1.86361
1605.83672,1.86172
1603.77531,1.86210
1601.71390,1.86250
1599.65250,1.86277
1597.59109,1.86579
1595.52968,1.86976
1593.46827,1.87051
1591.40686,1.86906
1589.34546,1.86899
1587.28405,1.87154
1585.22264,1.87518
1583.16123,1.87705
1581.09983,1.87683
1579.03842,1.87672
1576.97701,1.87650
1574.91560,1.87792
1572.85419,1.88221
1570.79279,1.88607
1568.73138,1.88876
1566.66997,1.89063
1564.60856,1.89173
1562.54715,1.89379
1560.48575,1.89445
1558.42434,1.88841
1556.36293,1.88936
1554.30152,1.89616
1552.24012,1.90193
1550.17871,1.90511
1548.11730,1.90572
1546.05589,1.90759
1543.99448,1.91135
1541.93308,1.91131
1539.87167,1.90719
1537.81026,1.90938
1535.74885,1.91555
1533.68744,1.91899
1531.62604,1.91718
1529.56463,1.91757
1527.50322,1.92273
1525.44181,1.92739
1523.38041,1.92874
1521.31900,1.92741
1519.25759,1.92670
1517.19618,1.92716
1515.13477,1.92553
1513.07337,1.92538
1511.01196,1.92912
1508.95055,1.93234
1506.88914,1.92799
1504.82773,1.92401
1502.76633,1.92678
1500.70492,1.92977
1498.64351,1.93023
1496.58210,1.92859
1494.52070,1.92923
1492.45929,1.93495
1490.39788,1.94105
1488.33647,1.93938
1486.27506,1.93487
1484.21366,1.93371
1482.15225,1.93498
1480.09084,1.93752
1478.02943,1.94149
1475.96802,1.94656
1473.90662,1.94808
1471.84521,1.94429
1469.78380,1.94244
1467.72239,1.94447
1465.66099,1.94700
1463.59958,1.94634
1461.53817,1.94567
1459.47676,1.94682
1457.41535,1.94689
1455.35395,1.94909
1453.29254,1.95379
1451.23113,1.95731
1449.16972,1.95841
1447.10831,1.95737
1445.04691,1.95730
1442.98550,1.95868
1440.92409,1.95941
1438.86268,1.96046
1436.80128,1.96214
1434.73987,1.96339
1432.67846,1.96701
1430.61705,1.97150
1428.55564,1.97367
1426.49424,1.97608
1424.43283,1.97806
1422.37142,1.97733
1420.31001,1.97787
1418.24860,1.98006
1416.18720,1.98032
1414.12579,1.98041
1412.06438,1.98158
1410.00297,1.98328
1407.94157,1.98503
1405.88016,1.98741
1403.81875,1.98948
1401.75734,1.99195
1399.69593,1.99701
1397.63453,2.00061
1395.57312,1.99973
1393.51171,1.99891
1391.45030,2.00203
1389.38889,2.00729
1387.32749,2.01015
1385.26608,2.00917
1383.20467,2.00920
1381.14326,2.01116
1379.08186,2.01318
1377.02045,2.01684
1374.95904,2.02066
1372.89763,2.02182
1370.83622,2.02446
1368.77482,2.02992
1366.71341,2.03448
1364.65200,2.03966
1362.59059,2.04581
1360.52918,2.04689
1358.46778,2.04475
1356.40637,2.04435
1354.34496,2.04667
1352.28355,2.05123
1350.22215,2.05435
1348.16074,2.05514
1346.09933,2.05761
1344.03792,2.06203
1341.97651,2.06837
1339.91511,2.07734
1337.85370,2.08306
1335.79229,2.08283
1333.73088,2.08370
1331.66947,2.08813
1329.60807,2.09325
1327.54666,2.09784
1325.48525,2.09999
1323.42384,2.10003
1321.36244,2.10150
1319.30103,2.10510
1317.23962,2.11006
1315.17821,2.11481
1313.11680,2.11759
1311.05540,2.12033
1308.99399,2.12402
1306.93258,2.12734
1304.87117,2.13000
1302.80976,2.13358
1300.74836,2.13952
1298.68695,2.14436
1296.62554,2.14752
1294.56413,2.15115
1292.50273,2.15479
1290.44132,2.15933
1288.37991,2.16301
1286.31850,2.16541
1284.25709,2.17219
1282.19569,2.18307
1280.13428,2.19154
1278.07287,2.19381
1276.01146,2.19194
1273.95005,2.19253
1271.88865,2.19965
1269.82724,2.21033
1267.76583,2.21724
1265.70442,2.21981
1263.64302,2.22229
1261.58161,2.22232
1259.52020,2.21927
1257.45879,2.21864
1255.39738,2.22098
1253.33598,2.22435
1251.27457,2.22735
1249.21316,2.22912
1247.15175,2.23066
1245.09034,2.22835
1243.02894,2.22182
1240.96753,2.21810
1238.90612,2.21892
1236.84471,2.21949
1234.78331,2.21840
1232.72190,2.21641
1230.66049,2.21571
1228.59908,2.22076
1226.53767,2.22497
1224.47627,2.22016
1222.41486,2.21578
1220.35345,2.22311
1218.29204,2.23723
1216.23063,2.24591
1214.16923,2.24771
1212.10782,2.25066
1210.04641,2.25661
1207.98500,2.26506
1205.92360,2.27648
1203.86219,2.28482
1201.80078,2.28882
1199.73937,2.29125
1197.67796,2.29233
1195.61656,2.29462
1193.55515,2.29894
1191.49374,2.30161
1189.43233,2.29818
1187.37092,2.29145
1185.30952,2.28776
1183.24811,2.28268
1181.18670,2.27198
1179.12529,2.26327
1177.06389,2.25892
1175.00248,2.25201
1172.94107,2.24156
1170.87966,2.23279
1168.81825,2.22967
1166.75685,2.23173
1164.69544,2.23628
1162.63403,2.24467
1160.57262,2.25634
1158.51121,2.25905
1156.44981,2.24316
1154.38840,2.21573
1152.32699,2.19018
1150.26558,2.17092
1148.20418,2.15142
1146.14277,2.12741
1144.08136,2.10248
1142.01995,2.07995
1139.95854,2.05643
1137.89714,2.02894
1135.83573,1.99873
1133.77432,1.96971
1131.71291,1.94640
1129.65150,1.92477
1127.59010,1.89899
1125.52869,1.87051
1123.46728,1.84179
1121.40587,1.81499
1119.34447,1.79114
1117.28306,1.76719
1115.22165,1.74070
1113.16024,1.71399
1111.09883,1.68839
1109.03743,1.66273
1106.97602,1.63677
1104.91461,1.61114
1102.85320,1.58584
1100.79179,1.56024
1098.73039,1.53423
1096.66898,1.50742
1094.60757,1.47958
1092.54616,1.45133
1090.48476,1.42300
1088.42335,1.39443
1086.36194,1.36553
1084.30053,1.33662
1082.23912,1.30758
1080.17772,1.27844
1078.11631,1.24952
1076.05490,1.22086
1073.99349,1.19284
1071.93208,1.16515
1069.87068,1.13720
1067.80927,1.10960
1065.74786,1.08319
1063.68645,1.05797
1061.62505,1.03375
1059.56364,1.01083
1057.50223,0.98970
1055.44082,0.97078
1053.37941,0.95443
1051.31801,0.94092
1049.25660,0.93021
1047.19519,0.92195
1045.13378,0.91575
1043.07238,0.91100
1041.01097,0.90712
1038.94956,0.90420
1036.88815,0.90267
1034.82674,0.90241
1032.76534,0.90329
1030.70393,0.90535
1028.64252,0.90834
1026.58111,0.91230
1024.51970,0.91749
1022.45830,0.92325
1020.39689,0.92913
1018.33548,0.93554
1016.27407,0.94255
1014.21267,0.94995
1012.15126,0.95785
1010.08985,0.96646
1008.02844,0.97564
1005.96703,0.98529
1003.90563,0.99546
1001.84422,1.00624
999.78281,1.01779
997.72140,1.03009
995.65999,1.04281
993.59859,1.05563
991.53718,1.06858
989.47577,1.08193
987.41436,1.09591
985.35296,1.11019
983.29155,1.12428
981.23014,1.13809
979.16873,1.15159
977.10732,1.16518
975.04592,1.17896
972.98451,1.19223
970.92310,1.20482
968.86169,1.21702
966.80028,1.22898
964.73888,1.24074
962.67747,1.25205
960.61606,1.26304
958.55465,1.27389
956.49325,1.28419
954.43184,1.29406
952.37043,1.30340
950.30902,1.31208
948.24761,1.32083
946.18621,1.32971
944.12480,1.33793
942.06339,1.34517
940.00198,1.35192
937.94057,1.35887
935.87917,1.36564
933.81776,1.37190
931.75635,1.37826
929.69494,1.38430
927.63354,1.38907
925.57213,1.39324
923.51072,1.39767
921.44931,1.40217
919.38790,1.40653
917.32650,1.41081
915.26509,1.41552
913.20368,1.42033
911.14227,1.42512
909.08086,1.43108
907.01946,1.43725
904.95805,1.44223
902.89664,1.44722
900.83523,1.45246
898.77383,1.45692
896.71242,1.46085
894.65101,1.46473
892.58960,1.46933
890.52819,1.47581
888.46679,1.48306
886.40538,1.48844
884.34397,1.49213
882.28256,1.49659
880.22115,1.50283
878.15975,1.50964
876.09834,1.51527
874.03693,1.51967
871.97552,1.52382
869.91412,1.52847
867.85271,1.53333
865.79130,1.53803
863.72989,1.54341
861.66848,1.54994
859.60708,1.55598
857.54567,1.55976
855.48426,1.56220
853.42285,1.56573
851.36144,1.57158
849.30004,1.57755
847.23863,1.58081
845.17722,1.58228
843.11581,1.58461
841.05441,1.58808
838.99300,1.59012
836.93159,1.59040
834.87018,1.59078
832.80877,1.59153
830.74737,1.59204
828.68596,1.59327
826.62455,1.59608
824.56314,1.59868
822.50173,1.60104
820.44033,1.60495
818.37892,1.60870
816.31751,1.61031
814.25610,1.61270
812.19470,1.61724
810.13329,1.62026
808.07188,1.62018
806.01047,1.61711
803.94906,1.61098
801.88766,1.60425
799.82625,1.59822
797.76484,1.59396
795.70343,1.59161
793.64202,1.58928
791.58062,1.58849
789.51921,1.58959
787.45780,1.58987
785.39639,1.58831
783.33499,1.58492
781.27358,1.58134
779.21217,1.57938
777.15076,1.57807
775.08935,1.57709
773.02795,1.57797
770.96654,1.57996
768.90513,1.58047
766.84372,1.58013
764.78231,1.58196
762.72091,1.58495
760.65950,1.58603
758.59809,1.58545
756.53668,1.58610
754.47528,1.58974
752.41387,1.59469
750.35246,1.59818
748.29105,1.59927
746.22964,1.60040
744.16824,1.60373
742.10683,1.60761
740.04542,1.61019
737.98401,1.61180
735.92260,1.61280
733.86120,1.61460
731.79979,1.61831
729.73838,1.62147
727.67697,1.62470
725.61557,1.62942
723.55416,1.63330
721.49275,1.63639
719.43134,1.64062
717.36993,1.64478
715.30853,1.64533
713.24712,1.64415
711.18571,1.64616
709.12430,1.64999
707.06289,1.65310
705.00149,1.65731
702.94008,1.66369
700.87867,1.67019
698.81726,1.67640
696.75586,1.68102
694.69445,1.68241
692.63304,1.68280
690.57163,1.68115
688.51022,1.67756
686.44882,1.67598
684.38741,1.67769
682.32600,1.67892
680.26459,1.67186
678.20318,1.65721
676.14178,1.64323
674.08037,1.63312
672.01896,1.62487
669.95755,1.61475
667.89615,1.60528
665.83474,1.60717
663.77333,1.61147
661.71192,1.61122
659.65051,1.61067
657.58911,1.61296
655.52770,1.61472
653.46629,1.61492
651.40488,1.61574
649.34347,1.61820
647.28207,1.62379
645.22066,1.63185
643.15925,1.63889
641.09784,1.64238
639.03644,1.64467
636.97503,1.65102
634.91362,1.65963
632.85221,1.66664
630.79080,1.67144
628.72940,1.67199
626.66799,1.67130
624.60658,1.67453
622.54517,1.67998
620.48376,1.68234
618.42236,1.68278
616.36095,1.68488
614.29954,1.68550
612.23813,1.68518
610.17673,1.68709
608.11532,1.68866
606.05391,1.68635
603.99250,1.68623
601.93109,1.69468
599.86969,1.70273
597.80828,1.70398
595.74687,1.70371
593.68546,1.70246
591.62405,1.69833
589.56265,1.69852
587.50124,1.70764
585.43983,1.71846
583.37842,1.72267
581.31702,1.71720
579.25561,1.70616
577.19420,1.69970
575.13279,1.69899
573.07138,1.69443
571.00998,1.68414
568.94857,1.67675
566.88716,1.67201
564.82575,1.66279
562.76434,1.65022
560.70294,1.63340
558.64153,1.61017
556.58012,1.58503
554.51871,1.56425
552.45731,1.54538
550.39590,1.52427
548.33449,1.50087
546.27308,1.47444
544.21167,1.44647
542.15027,1.41782
540.08886,1.38909
538.02745,1.35947
535.96604,1.32894
533.90463,1.30037
531.84323,1.27400
529.78182,1.24868
527.72041,1.22376
525.65900,1.19870
523.59760,1.17620
521.53619,1.15975
519.47478,1.14664
517.41337,1.13014
515.35196,1.10975
513.29056,1.09249
511.22915,1.07997
509.16774,1.06880
507.10633,1.05835
505.04492,1.05043
502.98352,1.04450
500.92211,1.03705
498.86070,1.02942
496.79929,1.02703
494.73789,1.03004
492.67648,1.03354
490.61507,1.03482
488.55366,1.03423
486.49225,1.03216
484.43085,1.02911
482.36944,1.02416
480.30803,1.01591
478.24662,1.00626
476.18521,0.99900
474.12381,0.99585
472.06240,0.99312
470.00099,0.98729
467.93958,0.98023
465.87818,0.97496
463.81677,0.97427
461.75536,0.97686
459.69395,0.98109
457.63254,0.98436
455.57114,0.98462
453.50973,0.98635
451.44832,0.98769
449.38691,0.98640
447.32550,0.98575
445.26410,0.98792
443.20269,0.98989
441.14128,0.98649
439.07987,0.98246
437.01847,0.98235
434.95706,0.98206
432.89565,0.97893
430.83424,0.97457
428.77283,0.97162
426.71143,0.97414
424.65002,0.98317
422.58861,0.99599
420.52720,1.01124
418.46579,1.01455
416.40439,1.00085
414.34298,0.99420
412.28157,0.99646
410.22016,0.99958
408.15876,1.00145
406.09735,1.00236
404.03594,1.00313
401.97453,1.01154
399.91312,1.03303
