3997.06983,1.34770
3995.00842,1.34721
3992.94702,1.34790
3990.88561,1.34875
3988.82420,1.34914
3986.76279,1.34954
3984.70139,1.35003
3982.63998,1.34982
3980.57857,1.34896
3978.51716,1.34832
3976.45575,1.34809
3974.39435,1.34796
3972.33294,1.34744
3970.27153,1.34665
3968.21012,1.34606
3966.14871,1.34583
3964.08731,1.34697
3962.02590,1.34989
3959.96449,1.35224
3957.90308,1.35276
3955.84168,1.35286
3953.78027,1.35307
3951.71886,1.35347
3949.65745,1.35376
3947.59604,1.35317
3945.53464,1.35321
3943.47323,1.35432
3941.41182,1.35355
3939.35041,1.35140
3937.28900,1.35125
3935.22760,1.35349
3933.16619,1.35616
3931.10478,1.35640
3929.04337,1.35411
3926.98197,1.35307
3924.92056,1.35379
3922.85915,1.35400
3920.79774,1.35508
3918.73633,1.35701
3916.67493,1.35667
3914.61352,1.35439
3912.55211,1.35250
3910.49070,1.35190
3908.42929,1.35336
3906.36789,1.35694
3904.30648,1.35992
3902.24507,1.35907
3900.18366,1.35515
3898.12226,1.35187
3896.06085,1.35234
3893.99944,1.35527
3891.93803,1.35624
3889.87662,1.35451
3887.81522,1.35458
3885.75381,1.35606
3883.69240,1.35634
3881.63099,1.35606
3879.56958,1.35479
3877.50818,1.35459
3875.44677,1.35724
3873.38536,1.35907
3871.32395,1.35852
3869.26255,1.35665
3867.20114,1.35565
3865.13973,1.35692
3863.07832,1.35702
3861.01691,1.35580
3858.95551,1.35707
3856.89410,1.36082
3854.83269,1.36322
3852.77128,1.35974
3850.70987,1.35560
3848.64847,1.35460
3846.58706,1.35501
3844.52565,1.35633
3842.46424,1.35794
3840.40284,1.35871
3838.34143,1.35729
3836.28002,1.35494
3834.21861,1.35466
3832.15720,1.35500
3830.09580,1.35504
3828.03439,1.35599
3825.97298,1.35724
3823.91157,1.35805
3821.85016,1.35812
3819.78876,1.35672
3817.72735,1.35595
3815.66594,1.35553
3813.60453,1.35503
3811.54313,1.35542
3809.48172,1.35601
3807.42031,1.35665
3805.35890,1.35774
3803.29749,1.35923
3801.23609,1.35894
3799.17468,1.35826
3797.11327,1.35921
3795.05186,1.35906
3792.99045,1.35800
3790.92905,1.35736
3788.86764,1.35782
3786.80623,1.35956
3784.74482,1.36059
3782.68342,1.35951
3780.62201,1.35762
3778.56060,1.35630
3776.49919,1.35581
3774.43778,1.35580
3772.37638,1.35662
3770.31497,1.35810
3768.25356,1.35878
3766.19215,1.35900
3764.13074,1.35948
3762.06934,1.36094
3760.00793,1.36341
3757.94652,1.36542
3755.88511,1.36767
3753.82371,1.37138
3751.76230,1.37410
3749.70089,1.37350
3747.63948,1.37349
3745.57807,1.37519
3743.51667,1.37734
3741.45526,1.38169
3739.39385,1.38870
3737.33244,1.39945
3735.27103,1.41471
3733.20963,1.43308
3731.14822,1.45789
3729.08681,1.48866
3727.02540,1.52398
3724.96400,1.56077
3722.90259,1.59201
3720.84118,1.61655
3718.77977,1.63407
3716.71836,1.64688
3714.65696,1.65762
3712.59555,1.66617
3710.53414,1.66644
3708.47273,1.65935
3706.41132,1.65204
3704.34992,1.64435
3702.28851,1.63234
3700.22710,1.61541
3698.16569,1.59972
3696.10429,1.58697
3694.04288,1.57707
3691.98147,1.57005
3689.92006,1.56340
3687.85865,1.55401
3685.79725,1.54677
3683.73584,1.54518
3681.67443,1.54797
3679.61302,1.55386
3677.55161,1.56215
3675.49021,1.56909
3673.42880,1.57044
3671.36739,1.57306
3669.30598,1.57696
3667.24458,1.57663
3665.18317,1.57556
3663.12176,1.57622
3661.06035,1.57842
3658.99894,1.58181
3656.93754,1.58422
3654.87613,1.58517
3652.81472,1.58969
3650.75331,1.59882
3648.69190,1.60446
3646.63050,1.60265
3644.56909,1.60134
3642.50768,1.60315
3640.44627,1.60630
3638.38487,1.60912
3636.32346,1.61287
3634.26205,1.61777
3632.20064,1.62377
3630.13923,1.63408
3628.07783,1.64058
3626.01642,1.63514
3623.95501,1.63189
3621.89360,1.63662
3619.83219,1.64486
3617.77079,1.64708
3615.70938,1.64629
3613.64797,1.64968
3611.58656,1.65371
3609.52516,1.65591
3607.46375,1.65540
3605.40234,1.65215
3603.34093,1.65107
3601.27952,1.65275
3599.21812,1.65563
3597.15671,1.66079
3595.09530,1.66538
3593.03389,1.66561
3590.97248,1.66701
3588.91108,1.67341
3586.84967,1.67459
3584.78826,1.66622
3582.72685,1.66016
3580.66545,1.65999
3578.60404,1.66258
3576.54263,1.66534
3574.48122,1.66662
3572.41981,1.66744
3570.35841,1.67297
3568.29700,1.68423
3566.23559,1.68832
3564.17418,1.68065
3562.11277,1.67470
3560.05137,1.67244
3557.98996,1.67122
3555.92855,1.67281
3553.86714,1.67575
3551.80574,1.67643
3549.74433,1.67757
3547.68292,1.68259
3545.62151,1.68626
3543.56010,1.68304
3541.49870,1.67681
3539.43729,1.67395
3537.37588,1.67513
3535.31447,1.67657
3533.25306,1.67701
3531.19166,1.67874
3529.13025,1.68273
3527.06884,1.68573
3525.00743,1.68532
3522.94603,1.68258
3520.88462,1.67991
3518.82321,1.67930
3516.76180,1.67965
3514.70039,1.68020
3512.63899,1.68176
3510.57758,1.68339
3508.51617,1.68455
3506.45476,1.68660
3504.39335,1.68848
3502.33195,1.68678
3500.27054,1.68339
3498.20913,1.68254
3496.14772,1.68251
3494.08632,1.68190
3492.02491,1.68269
3489.96350,1.68518
3487.90209,1.68677
3485.84068,1.68620
3483.77928,1.68664
3481.71787,1.68820
3479.65646,1.68759
3477.59505,1.68656
3475.53364,1.68703
3473.47224,1.68633
3471.41083,1.68427
3469.34942,1.68384
3467.28801,1.68420
3465.22661,1.68423
3463.16520,1.68555
3461.10379,1.68636
3459.04238,1.68452
3456.98097,1.68322
3454.91957,1.68570
3452.85816,1.68901
3450.79675,1.68886
3448.73534,1.68778
3446.67393,1.68835
3444.61253,1.68902
3442.55112,1.68959
3440.48971,1.69019
3438.42830,1.69071
3436.36690,1.69068
3434.30549,1.69055
3432.24408,1.69161
3430.18267,1.69177
3428.12126,1.69005
3426.05986,1.68914
3423.99845,1.69071
3421.93704,1.69303
3419.87563,1.69257
3417.81422,1.68987
3415.75282,1.68756
3413.69141,1.68762
3411.63000,1.69010
3409.56859,1.69109
3407.50719,1.68932
3405.44578,1.68751
3403.38437,1.68704
3401.32296,1.68675
3399.26155,1.68577
3397.20015,1.68562
3395.13874,1.68702
3393.07733,1.68799
3391.01592,1.68713
3388.95451,1.68571
3386.89311,1.68544
3384.83170,1.68582
3382.77029,1.68558
3380.70888,1.68533
3378.64748,1.68463
3376.58607,1.68337
3374.52466,1.68372
3372.46325,1.68451
3370.40184,1.68313
3368.34044,1.68071
3366.27903,1.67875
3364.21762,1.67694
3362.15621,1.67494
3360.09480,1.67436
3358.03340,1.67616
3355.97199,1.67743
3353.91058,1.67668
3351.84917,1.67499
3349.78777,1.67231
3347.72636,1.66984
3345.66495,1.66968
3343.60354,1.66999
3341.54213,1.66990
3339.48073,1.67119
3337.41932,1.67123
3335.35791,1.66893
3333.29650,1.66747
3331.23509,1.66741
3329.17369,1.66726
3327.11228,1.66681
3325.05087,1.66638
3322.98946,1.66559
3320.92806,1.66437
3318.86665,1.66329
3316.80524,1.66210
3314.74383,1.66077
3312.68242,1.65986
3310.62102,1.65903
3308.55961,1.65854
3306.49820,1.65763
3304.43679,1.65598
3302.37538,1.65501
3300.31398,1.65416
3298.25257,1.65244
3296.19116,1.65042
3294.12975,1.65021
3292.06835,1.65187
3290.00694,1.65268
3287.94553,1.65284
3285.88412,1.65365
3283.82271,1.65326
3281.76131,1.65130
3279.69990,1.64981
3277.63849,1.64923
3275.57708,1.64880
3273.51567,1.64717
3271.45427,1.64462
3269.39286,1.64329
3267.33145,1.64359
3265.27004,1.64399
3263.20864,1.64338
3261.14723,1.64232
3259.08582,1.64193
3257.02441,1.64114
3254.96300,1.63953
3252.90160,1.63938
3250.84019,1.64079
3248.77878,1.64115
3246.71737,1.64009
3244.65596,1.63931
3242.59456,1.63831
3240.53315,1.63646
3238.47174,1.63552
3236.41033,1.63592
3234.34893,1.63601
3232.28752,1.63519
3230.22611,1.63380
3228.16470,1.63272
3226.10329,1.63247
3224.04189,1.63176
3221.98048,1.62999
3219.91907,1.62824
3217.85766,1.62754
3215.79625,1.62766
3213.73485,1.62719
3211.67344,1.62560
3209.61203,1.62421
3207.55062,1.62334
3205.48922,1.62182
3203.42781,1.62024
3201.36640,1.61956
3199.30499,1.61837
3197.24358,1.61583
3195.18218,1.61328
3193.12077,1.61168
3191.05936,1.61092
3188.99795,1.61052
3186.93654,1.60929
3184.87514,1.60662
3182.81373,1.60413
3180.75232,1.60319
3178.69091,1.60296
3176.62951,1.60225
3174.56810,1.60097
3172.50669,1.59977
3170.44528,1.59903
3168.38387,1.59873
3166.32247,1.59832
3164.26106,1.59756
3162.19965,1.59652
3160.13824,1.59486
3158.07683,1.59258
3156.01543,1.59063
3153.95402,1.58980
3151.89261,1.58905
3149.83120,1.58771
3147.76980,1.58681
3145.70839,1.58588
3143.64698,1.58436
3141.58557,1.58325
3139.52416,1.58252
3137.46276,1.58170
3135.40135,1.58042
3133.33994,1.57870
3131.27853,1.57724
3129.21713,1.57574
3127.15572,1.57423
3125.09431,1.57359
3123.03290,1.57335
3120.97149,1.57236
3118.91009,1.57132
3116.84868,1.57067
3114.78727,1.56931
3112.72586,1.56751
3110.66445,1.56616
3108.60305,1.56498
3106.54164,1.56424
3104.48023,1.56404
3102.41882,1.56289
3100.35742,1.56074
3098.29601,1.55880
3096.23460,1.55685
3094.17319,1.55460
3092.11178,1.55289
3090.05038,1.55228
3087.98897,1.55231
3085.92756,1.55221
3083.86615,1.55170
3081.80474,1.55093
3079.74334,1.55000
3077.68193,1.54829
3075.62052,1.54537
3073.55911,1.54301
3071.49771,1.54226
3069.43630,1.54199
3067.37489,1.54106
3065.31348,1.53902
3063.25207,1.53704
3061.19067,1.53654
3059.12926,1.53694
3057.06785,1.53659
3055.00644,1.53516
3052.94503,1.53354
3050.88363,1.53211
3048.82222,1.53091
3046.76081,1.52973
3044.69940,1.52850
3042.63800,1.52798
3040.57659,1.52793
3038.51518,1.52706
3036.45377,1.52594
3034.39236,1.52578
3032.33096,1.52579
3030.26955,1.52526
3028.20814,1.52489
3026.14673,1.52488
3024.08532,1.52491
3022.02392,1.52479
3019.96251,1.52386
3017.90110,1.52257
3015.83969,1.52206
3013.77829,1.52221
3011.71688,1.52155
3009.65547,1.51937
3007.59406,1.51789
3005.53265,1.51822
3003.47125,1.51914
3001.40984,1.52062
2999.34843,1.52299
2997.28702,1.52571
2995.22561,1.52852
2993.16421,1.53125
2991.10280,1.53258
2989.04139,1.53203
2986.97998,1.53082
2984.91858,1.53036
2982.85717,1.53078
2980.79576,1.53047
2978.73435,1.52841
2976.67294,1.52564
2974.61154,1.52315
2972.55013,1.52075
2970.48872,1.51806
2968.42731,1.51553
2966.36590,1.51397
2964.30450,1.51313
2962.24309,1.51182
2960.18168,1.51028
2958.12027,1.50975
2956.05887,1.50969
2953.99746,1.50901
2951.93605,1.50853
2949.87464,1.50873
2947.81323,1.50880
2945.75183,1.50908
2943.69042,1.50929
2941.62901,1.50782
2939.56760,1.50507
2937.50619,1.50320
2935.44479,1.50382
2933.38338,1.50503
2931.32197,1.50418
2929.26056,1.50259
2927.19916,1.50161
2925.13775,1.50103
2923.07634,1.50065
2921.01493,1.49972
2918.95352,1.49815
2916.89212,1.49724
2914.83071,1.49816
2912.76930,1.49978
2910.70789,1.50076
2908.64648,1.50098
2906.58508,1.50073
2904.52367,1.50116
2902.46226,1.50200
2900.40085,1.50195
2898.33945,1.50184
2896.27804,1.50278
2894.21663,1.50409
2892.15522,1.50503
2890.09381,1.50643
2888.03241,1.50883
2885.97100,1.51105
2883.90959,1.51245
2881.84818,1.51319
2879.78677,1.51321
2877.72537,1.51289
2875.66396,1.51204
2873.60255,1.51052
2871.54114,1.50929
2869.47974,1.50791
2867.41833,1.50555
2865.35692,1.50265
2863.29551,1.49944
2861.23410,1.49664
2859.17270,1.49429
2857.11129,1.49116
2855.04988,1.48752
2852.98847,1.48452
2850.92706,1.48196
2848.86566,1.47894
2846.80425,1.47544
2844.74284,1.47210
2842.68143,1.46976
2840.62003,1.46811
2838.55862,1.46480
2836.49721,1.46011
2834.43580,1.45703
2832.37439,1.45536
2830.31299,1.45343
2828.25158,1.45148
2826.19017,1.44989
2824.12876,1.44827
2822.06735,1.44638
2820.00595,1.44508
2817.94454,1.44437
2815.88313,1.44250
2813.82172,1.43955
2811.76032,1.43738
2809.69891,1.43614
2807.63750,1.43526
2805.57609,1.43527
2803.51468,1.43543
2801.45328,1.43464
2799.39187,1.43363
2797.33046,1.43241
2795.26905,1.43033
2793.20764,1.42849
2791.14624,1.42822
2789.08483,1.42893
2787.02342,1.42877
2784.96201,1.42720
2782.90061,1.42570
2780.83920,1.42511
2778.77779,1.42474
2776.71638,1.42468
2774.65497,1.42471
2772.59357,1.42405
2770.53216,1.42311
2768.47075,1.42199
2766.40934,1.42116
2764.34793,1.42099
2762.28653,1.42068
2760.22512,1.42035
2758.16371,1.42000
2756.10230,1.41940
2754.04090,1.41904
2751.97949,1.41871
2749.91808,1.41776
2747.85667,1.41661
2745.79526,1.41671
2743.73386,1.41814
2741.67245,1.41865
2739.61104,1.41733
2737.54963,1.41593
2735.48822,1.41515
2733.42682,1.41456
2731.36541,1.41466
2729.30400,1.41543
2727.24259,1.41588
2725.18119,1.41535
2723.11978,1.41429
2721.05837,1.41381
2718.99696,1.41383
2716.93555,1.41365
2714.87415,1.41349
2712.81274,1.41346
2710.75133,1.41301
2708.68992,1.41220
2706.62851,1.41153
2704.56711,1.41111
2702.50570,1.41121
2700.44429,1.41195
2698.38288,1.41229
2696.32148,1.41172
2694.26007,1.41127
2692.19866,1.41109
2690.13725,1.41071
2688.07584,1.41019
2686.01444,1.40944
2683.95303,1.40887
2681.89162,1.40912
2679.83021,1.40956
2677.76880,1.40959
2675.70740,1.41000
2673.64599,1.41078
2671.58458,1.41102
2669.52317,1.41109
2667.46177,1.41150
2665.40036,1.41163
2663.33895,1.41128
2661.27754,1.41125
2659.21613,1.41228
2657.15473,1.41372
2655.09332,1.41435
2653.03191,1.41444
2650.97050,1.41508
2648.90909,1.41656
2646.84769,1.41820
2644.78628,1.41906
2642.72487,1.41978
2640.66346,1.42167
2638.60206,1.42426
2636.54065,1.42700
2634.47924,1.42981
2632.41783,1.43236
2630.35642,1.43541
2628.29502,1.43829
2626.23361,1.43935
2624.17220,1.43994
2622.11079,1.44135
2620.04938,1.44300
2617.98798,1.44507
2615.92657,1.44746
2613.86516,1.44931
2611.80375,1.45094
2609.74235,1.45311
2607.68094,1.45556
2605.61953,1.45775
2603.55812,1.45943
2601.49671,1.46046
2599.43531,1.46126
2597.37390,1.46238
2595.31249,1.46444
2593.25108,1.46746
2591.18967,1.46985
2589.12827,1.47095
2587.06686,1.47176
2585.00545,1.47265
2582.94404,1.47391
2580.88264,1.47553
2578.82123,1.47685
2576.75982,1.47784
2574.69841,1.47849
2572.63700,1.47937
2570.57560,1.48096
2568.51419,1.48226
2566.45278,1.48391
2564.39137,1.48637
2562.32996,1.48838
2560.26856,1.49019
2558.20715,1.49182
2556.14574,1.49323
2554.08433,1.49539
2552.02293,1.49748
2549.96152,1.49888
2547.90011,1.50066
2545.83870,1.50290
2543.77729,1.50505
2541.71589,1.50756
2539.65448,1.51210
2537.59307,1.51952
2535.53166,1.52785
2533.47025,1.53567
2531.40885,1.54336
2529.34744,1.55084
2527.28603,1.55773
2525.22462,1.56398
2523.16322,1.56955
2521.10181,1.57308
2519.04040,1.57334
2516.97899,1.57161
2514.91758,1.56944
2512.85618,1.56601
2510.79477,1.56066
2508.73336,1.55448
2506.67195,1.54779
2504.61054,1.54071
2502.54914,1.53303
2500.48773,1.52467
2498.42632,1.51682
2496.36491,1.51018
2494.30351,1.50439
2492.24210,1.49808
2490.18069,1.49070
2488.11928,1.48335
2486.05787,1.47625
2483.99647,1.46926
2481.93506,1.46281
2479.87365,1.45713
2477.81224,1.45252
2475.75083,1.44848
2473.68943,1.44398
2471.62802,1.43985
2469.56661,1.43726
2467.50520,1.43591
2465.44380,1.43503
2463.38239,1.43352
2461.32098,1.43123
2459.25957,1.42934
2457.19816,1.42816
2455.13676,1.42737
2453.07535,1.42678
2451.01394,1.42611
2448.95253,1.42553
2446.89112,1.42538
2444.82972,1.42513
2442.76831,1.42426
2440.70690,1.42330
2438.64549,1.42284
2436.58409,1.42302
2434.52268,1.42359
2432.46127,1.42372
2430.39986,1.42317
2428.33845,1.42267
2426.27705,1.42312
2424.21564,1.42416
2422.15423,1.42426
2420.09282,1.42354
2418.03141,1.42318
2415.97001,1.42327
2413.90860,1.42362
2411.84719,1.42420
2409.78578,1.42460
2407.72438,1.42484
2405.66297,1.42538
2403.60156,1.42605
2401.54015,1.42627
2399.47874,1.42646
2397.41734,1.42731
2395.35593,1.42838
2393.29452,1.42928
2391.23311,1.43040
2389.17170,1.43204
2387.11030,1.43390
2385.04889,1.43578
2382.98748,1.43788
2380.92607,1.44014
2378.86467,1.44175
2376.80326,1.44224
2374.74185,1.44240
2372.68044,1.44272
2370.61903,1.44245
2368.55763,1.44077
2366.49622,1.43826
2364.43481,1.43794
2362.37340,1.44217
2360.31199,1.44828
2358.25059,1.45329
2356.18918,1.45994
2354.12777,1.47173
2352.06636,1.48880
2350.00496,1.50681
2347.94355,1.52200
2345.88214,1.53558
2343.82073,1.54902
2341.75932,1.55790
2339.69792,1.55482
2337.63651,1.53931
2335.57510,1.51989
2333.51369,1.50450
2331.45228,1.49508
2329.39088,1.48947
2327.32947,1.48576
2325.26806,1.48255
2323.20665,1.47853
2321.14525,1.47526
2319.08384,1.47390
2317.02243,1.47361
2314.96102,1.47363
2312.89961,1.47338
2310.83821,1.47277
2308.77680,1.47214
2306.71539,1.47161
2304.65398,1.47096
2302.59257,1.46999
2300.53117,1.46875
2298.46976,1.46742
2296.40835,1.46586
2294.34694,1.46442
2292.28554,1.46354
2290.22413,1.46280
2288.16272,1.46213
2286.10131,1.46203
2284.03990,1.46268
2281.97850,1.46335
2279.91709,1.46350
2277.85568,1.46353
2275.79427,1.46410
2273.73286,1.46493
2271.67146,1.46494
2269.61005,1.46490
2267.54864,1.46594
2265.48723,1.46706
2263.42583,1.46743
2261.36442,1.46720
2259.30301,1.46656
2257.24160,1.46663
2255.18019,1.46797
2253.11879,1.46949
2251.05738,1.47018
2248.99597,1.47020
2246.93456,1.47033
2244.87315,1.47081
2242.81175,1.47115
2240.75034,1.47143
2238.68893,1.47224
2236.62752,1.47337
2234.56612,1.47427
2232.50471,1.47520
2230.44330,1.47646
2228.38189,1.47741
2226.32048,1.47817
2224.25908,1.47938
2222.19767,1.48043
2220.13626,1.48105
2218.07485,1.48199
2216.01344,1.48304
2213.95204,1.48356
2211.89063,1.48420
2209.82922,1.48578
2207.76781,1.48771
2205.70641,1.48921
2203.64500,1.49041
2201.58359,1.49206
2199.52218,1.49402
2197.46077,1.49525
2195.39937,1.49613
2193.33796,1.49744
2191.27655,1.49884
2189.21514,1.50051
2187.15373,1.50260
2185.09233,1.50493
2183.03092,1.50753
2180.96951,1.50987
2178.90810,1.51227
2176.84670,1.51545
2174.78529,1.51884
2172.72388,1.52193
2170.66247,1.52462
2168.60106,1.52677
2166.53966,1.52941
2164.47825,1.53300
2162.41684,1.53653
2160.35543,1.53989
2158.29402,1.54367
2156.23262,1.54765
2154.17121,1.55131
2152.10980,1.55462
2150.04839,1.55724
2147.98699,1.55904
2145.92558,1.56123
2143.86417,1.56387
2141.80276,1.56565
2139.74135,1.56713
2137.67995,1.56881
2135.61854,1.56977
2133.55713,1.57089
2131.49572,1.57298
2129.43431,1.57458
2127.37291,1.57570
2125.31150,1.57739
2123.25009,1.57862
2121.18868,1.57885
2119.12728,1.57972
2117.06587,1.58190
2115.00446,1.58387
2112.94305,1.58450
2110.88164,1.58465
2108.82024,1.58554
2106.75883,1.58686
2104.69742,1.58810
2102.63601,1.58950
2100.57461,1.59096
2098.51320,1.59271
2096.45179,1.59441
2094.39038,1.59505
2092.32897,1.59539
2090.26757,1.59643
2088.20616,1.59790
2086.14475,1.59950
2084.08334,1.60072
2082.02193,1.60181
2079.96053,1.60346
2077.89912,1.60517
2075.83771,1.60642
2073.77630,1.60774
2071.71490,1.60959
2069.65349,1.61156
2067.59208,1.61345
2065.53067,1.61458
2063.46926,1.61505
2061.40786,1.61684
2059.34645,1.61992
2057.28504,1.62295
2055.22363,1.62556
2053.16222,1.62765
2051.10082,1.63006
2049.03941,1.63366
2046.97800,1.63763
2044.91659,1.64119
2042.85519,1.64478
2040.79378,1.64785
2038.73237,1.64856
2036.67096,1.64724
2034.60955,1.64599
2032.54815,1.64446
2030.48674,1.64188
2028.42533,1.63897
2026.36392,1.63566
2024.30251,1.63202
2022.24111,1.62869
2020.17970,1.62667
2018.11829,1.62662
2016.05688,1.62695
2013.99548,1.62637
2011.93407,1.62567
2009.87266,1.62530
2007.81125,1.62519
2005.74984,1.62491
2003.68844,1.62455
2001.62703,1.62546
1999.56562,1.62746
1997.50421,1.62882
1995.44280,1.63033
1993.38140,1.63340
1991.31999,1.63573
1989.25858,1.63597
1987.19717,1.63651
1985.13577,1.63816
1983.07436,1.63981
1981.01295,1.64037
1978.95154,1.63964
1976.89013,1.63810
1974.82873,1.63631
1972.76732,1.63543
1970.70591,1.63616
1968.64450,1.63733
1966.58309,1.63635
1964.52169,1.63310
1962.46028,1.62987
1960.39887,1.62743
1958.33746,1.62623
1956.27606,1.62615
1954.21465,1.62542
1952.15324,1.62373
1950.09183,1.62248
1948.03042,1.62186
1945.96902,1.62210
1943.90761,1.62361
1941.84620,1.62294
1939.78479,1.61884
1937.72338,1.61570
1935.66198,1.61511
1933.60057,1.61537
1931.53916,1.61490
1929.47775,1.61349
1927.41635,1.61338
1925.35494,1.61671
1923.29353,1.61923
1921.23212,1.61754
1919.17071,1.61693
1917.10931,1.61711
1915.04790,1.61503
1912.98649,1.61423
1910.92508,1.61525
1908.86367,1.61510
1906.80227,1.61380
1904.74086,1.61322
1902.67945,1.61370
1900.61804,1.61491
1898.55664,1.61649
1896.49523,1.61831
1894.43382,1.62036
1892.37241,1.62365
1890.31100,1.62743
1888.24960,1.62783
1886.18819,1.62626
1884.12678,1.62533
1882.06537,1.62498
1880.00396,1.62637
1877.94256,1.62893
1875.88115,1.63130
1873.81974,1.63498
1871.75833,1.64223
1869.69693,1.65054
1867.63552,1.65175
1865.57411,1.64699
1863.51270,1.64479
1861.45129,1.64688
1859.38989,1.65097
1857.32848,1.65509
1855.26707,1.65829
1853.20566,1.65991
1851.14425,1.66160
1849.08285,1.66590
1847.02144,1.67256
1844.96003,1.67936
1842.89862,1.68038
1840.83722,1.67720
1838.77581,1.67742
1836.71440,1.68011
1834.65299,1.68269
1832.59158,1.68833
1830.53018,1.69672
1828.46877,1.70104
1826.40736,1.70254
1824.34595,1.70373
1822.28454,1.70332
1820.22314,1.70389
1818.16173,1.70538
1816.10032,1.70736
1814.03891,1.71333
1811.97751,1.72332
1809.91610,1.73160
1807.85469,1.73723
1805.79328,1.74547
1803.73187,1.75735
1801.67047,1.76853
1799.60906,1.77448
1797.54765,1.77727
1795.48624,1.78135
1793.42483,1.78364
1791.36343,1.77453
1789.30202,1.75961
1787.24061,1.74975
1785.17920,1.74391
1783.11780,1.74048
1781.05639,1.73943
1778.99498,1.73888
1776.93357,1.73993
1774.87216,1.74575
1772.81076,1.75262
1770.74935,1.75234
1768.68794,1.74879
1766.62653,1.74659
1764.56512,1.74833
1762.50372,1.75446
1760.44231,1.75754
1758.38090,1.75706
1756.31949,1.75668
1754.25809,1.75806
1752.19668,1.76454
1750.13527,1.77280
1748.07386,1.77640
1746.01245,1.77776
1743.95105,1.77925
1741.88964,1.78081
1739.82823,1.78280
1737.76682,1.78547
1735.70541,1.79192
1733.64401,1.79864
1731.58260,1.79746
1729.52119,1.79489
1727.45978,1.79388
1725.39838,1.79521
1723.33697,1.79909
1721.27556,1.80511
1719.21415,1.81519
1717.15274,1.82618
1715.09134,1.82670
1713.02993,1.82205
1710.96852,1.82059
1708.90711,1.82289
1706.84570,1.82841
1704.78430,1.83419
1702.72289,1.83953
1700.66148,1.84812
1698.60007,1.85310
1696.53867,1.84976
1694.47726,1.84571
1692.41585,1.84619
1690.35444,1.85119
1688.29303,1.85783
1686.23163,1.86479
1684.17022,1.87067
1682.10881,1.87089
1680.04740,1.86958
1677.98599,1.86918
1675.92459,1.86977
1673.86318,1.87191
1671.80177,1.87787
1669.74036,1.88335
1667.67896,1.88050
1665.61755,1.87860
1663.55614,1.88245
1661.49473,1.88399
1659.43332,1.88262
1657.37192,1.88628
1655.31051,1.89550
1653.24910,1.90117
1651.18769,1.89736
1649.12628,1.89709
1647.06488,1.89846
1645.00347,1.89712
1642.94206,1.89710
1640.88065,1.90025
1638.81925,1.90585
1636.75784,1.91068
1634.69643,1.90755
1632.63502,1.90164
1630.57361,1.89932
1628.51221,1.89789
1626.45080,1.89625
1624.38939,1.89492
1622.32798,1.89229
1620.26657,1.88947
1618.20517,1.88682
1616.14376,1.88326
1614.08235,1.88142
1612.02094,1.88011
1609.95954,1.87646
1607.89813,1.87128
1605.83672,1.86756
1603.77531,1.86569
1601.71390,1.86369
1599.65250,1.86122
1597.59109,1.85934
1595.52968,1.85691
1593.46827,1.85389
1591.40686,1.85238
1589.34546,1.85113
1587.28405,1.84797
1585.22264,1.84443
1583.16123,1.84215
1581.09983,1.84052
1579.03842,1.83879
1576.97701,1.83385
1574.91560,1.82659
1572.85419,1.82456
1570.79279,1.82506
1568.73138,1.82325
1566.66997,1.82069
1564.60856,1.81940
1562.54715,1.81842
1560.48575,1.81625
1558.42434,1.81147
1556.36293,1.81012
1554.30152,1.81092
1552.24012,1.81214
1550.17871,1.81136
1548.11730,1.80915
1546.05589,1.81068
1543.99448,1.81340
1541.93308,1.81247
1539.87167,1.80975
1537.81026,1.80807
1535.74885,1.80829
1533.68744,1.80939
1531.62604,1.81184
1529.56463,1.81663
1527.50322,1.82034
1525.44181,1.82100
1523.38041,1.82091
1521.31900,1.81954
1519.25759,1.81966
1517.19618,1.82201
1515.13477,1.82346
1513.07337,1.82659
1511.01196,1.83276
1508.95055,1.83846
1506.88914,1.83655
1504.82773,1.83068
1502.76633,1.83055
1500.70492,1.83161
1498.64351,1.83180
1496.58210,1.83283
1494.52070,1.83555
1492.45929,1.83964
1490.39788,1.84273
1488.33647,1.84079
1486.27506,1.83718
1484.21366,1.83661
1482.15225,1.83854
1480.09084,1.84007
1478.02943,1.84104
1475.96802,1.84317
1473.90662,1.84428
1471.84521,1.84224
1469.78380,1.83972
1467.72239,1.83900
1465.66099,1.84003
1463.59958,1.84092
1461.53817,1.84175
1459.47676,1.84399
1457.41535,1.84381
1455.35395,1.84040
1453.29254,1.84126
1451.23113,1.84400
1449.16972,1.84449
1447.10831,1.84248
1445.04691,1.84146
1442.98550,1.84219
1440.92409,1.84306
1438.86268,1.84415
1436.80128,1.84478
1434.73987,1.84424
1432.67846,1.84416
1430.61705,1.84498
1428.55564,1.84545
1426.49424,1.84513
1424.43283,1.84501
1422.37142,1.84577
1420.31001,1.84821
1418.24860,1.85112
1416.18720,1.85212
1414.12579,1.85298
1412.06438,1.85529
1410.00297,1.85796
1407.94157,1.86064
1405.88016,1.86548
1403.81875,1.87087
1401.75734,1.87549
1399.69593,1.88309
1397.63453,1.89142
1395.57312,1.89488
1393.51171,1.89405
1391.45030,1.89443
1389.38889,1.89851
1387.32749,1.90033
1385.26608,1.89663
1383.20467,1.89458
1381.14326,1.89653
1379.08186,1.90018
1377.02045,1.90371
1374.95904,1.90522
1372.89763,1.90431
1370.83622,1.90263
1368.77482,1.90011
1366.71341,1.89840
1364.65200,1.90046
1362.59059,1.90275
1360.52918,1.90078
1358.46778,1.89749
1356.40637,1.89632
1354.34496,1.89747
1352.28355,1.89922
1350.22215,1.90195
1348.16074,1.90537
1346.09933,1.90615
1344.03792,1.90586
1341.97651,1.91015
1339.91511,1.91804
1337.85370,1.92276
1335.79229,1.92364
1333.73088,1.92418
1331.66947,1.92528
1329.60807,1.92609
1327.54666,1.92711
1325.48525,1.93083
1323.42384,1.93667
1321.36244,1.94165
1319.30103,1.94507
1317.23962,1.94751
1315.17821,1.95041
1313.11680,1.95331
1311.05540,1.95430
1308.99399,1.95530
1306.93258,1.95855
1304.87117,1.96430
1302.80976,1.97117
1300.74836,1.97589
1298.68695,1.97772
1296.62554,1.97965
1294.56413,1.98462
1292.50273,1.99285
1290.44132,2.00046
1288.37991,2.00472
1286.31850,2.00924
1284.25709,2.01532
1282.19569,2.02055
1280.13428,2.02424
1278.07287,2.02638
1276.01146,2.02952
1273.95005,2.03582
1271.88865,2.04543
1269.82724,2.05560
1267.76583,2.06120
1265.70442,2.06452
1263.64302,2.07044
1261.58161,2.07804
1259.52020,2.08539
1257.45879,2.09095
1255.39738,2.09704
1253.33598,2.10553
1251.27457,2.11154
1249.21316,2.11681
1247.15175,2.12564
1245.09034,2.13548
1243.02894,2.14587
1240.96753,2.15843
1238.90612,2.17068
1236.84471,2.17796
1234.78331,2.18407
1232.72190,2.19360
1230.66049,2.20196
1228.59908,2.20822
1226.53767,2.21653
1224.47627,2.22869
1222.41486,2.24269
1220.35345,2.25425
1218.29204,2.26215
1216.23063,2.26905
1214.16923,2.28165
1212.10782,2.30503
1210.04641,2.33073
1207.98500,2.34588
1205.92360,2.35198
1203.86219,2.35776
1201.80078,2.36480
1199.73937,2.37338
1197.67796,2.38162
1195.61656,2.38713
1193.55515,2.39275
1191.49374,2.39635
1189.43233,2.39940
1187.37092,2.40429
1185.30952,2.40115
1183.24811,2.38652
1181.18670,2.37453
1179.12529,2.36985
1177.06389,2.36049
1175.00248,2.34123
1172.94107,2.31811
1170.87966,2.29700
1168.81825,2.27920
1166.75685,2.26435
1164.69544,2.24763
1162.63403,2.22328
1160.57262,2.19759
1158.51121,2.17704
1156.44981,2.15842
1154.38840,2.13848
1152.32699,2.11966
1150.26558,2.10116
1148.20418,2.07882
1146.14277,2.05398
1144.08136,2.02906
1142.01995,2.00311
1139.95854,1.97375
1137.89714,1.94056
1135.83573,1.90644
1133.77432,1.87271
1131.71291,1.83721
1129.65150,1.79886
1127.59010,1.75830
1125.52869,1.71682
1123.46728,1.67634
1121.40587,1.63729
1119.34447,1.59987
1117.28306,1.56542
1115.22165,1.53398
1113.16024,1.50474
1111.09883,1.47650
1109.03743,1.44782
1106.97602,1.41941
1104.91461,1.39271
1102.85320,1.36780
1100.79179,1.34443
1098.73039,1.32229
1096.66898,1.30128
1094.60757,1.28160
1092.54616,1.26300
1090.48476,1.24593
1088.42335,1.23094
1086.36194,1.21724
1084.30053,1.20418
1082.23912,1.19215
1080.17772,1.18154
1078.11631,1.17189
1076.05490,1.16267
1073.99349,1.15402
1071.93208,1.14571
1069.87068,1.13734
1067.80927,1.12851
1065.74786,1.11829
1063.68645,1.10625
1061.62505,1.09315
1059.56364,1.07929
1057.50223,1.06399
1055.44082,1.04741
1053.37941,1.03005
1051.31801,1.01171
1049.25660,0.99294
1047.19519,0.97480
1045.13378,0.95742
1043.07238,0.94077
1041.01097,0.92547
1038.94956,0.91154
1036.88815,0.89845
1034.82674,0.88599
1032.76534,0.87424
1030.70393,0.86311
1028.64252,0.85239
1026.58111,0.84207
1024.51970,0.83251
1022.45830,0.82434
1020.39689,0.81863
1018.33548,0.81609
1016.27407,0.81680
1014.21267,0.82060
1012.15126,0.82723
1010.08985,0.83636
1008.02844,0.84767
1005.96703,0.86084
1003.90563,0.87524
1001.84422,0.89001
999.78281,0.90455
997.72140,0.91896
995.65999,0.93356
993.59859,0.94817
991.53718,0.96205
989.47577,0.97452
987.41436,0.98527
985.35296,0.99384
983.29155,0.99977
981.23014,1.00341
979.16873,1.00562
977.10732,1.00709
975.04592,1.00828
972.98451,1.00979
970.92310,1.01234
968.86169,1.01601
966.80028,1.02097
964.73888,1.02846
962.67747,1.03912
960.61606,1.05228
958.55465,1.06714
956.49325,1.08339
954.43184,1.10059
952.37043,1.11796
950.30902,1.13492
948.24761,1.15139
946.18621,1.16729
944.12480,1.18255
942.06339,1.19749
940.00198,1.21138
937.94057,1.22287
935.87917,1.23196
933.81776,1.23900
931.75635,1.24371
929.69494,1.24622
927.63354,1.24689
925.57213,1.24646
923.51072,1.24638
921.44931,1.24739
919.38790,1.24960
917.32650,1.25249
915.26509,1.25536
913.20368,1.25861
911.14227,1.26220
909.08086,1.26532
907.01946,1.26792
904.95805,1.27027
902.89664,1.27285
900.83523,1.27609
898.77383,1.27976
896.71242,1.28310
894.65101,1.28514
892.58960,1.28654
890.52819,1.28812
888.46679,1.28877
886.40538,1.28728
884.34397,1.28421
882.28256,1.28150
880.22115,1.27971
878.15975,1.27807
876.09834,1.27709
874.03693,1.27750
871.97552,1.27987
869.91412,1.28471
867.85271,1.29107
865.79130,1.29736
863.72989,1.30291
861.66848,1.30866
859.60708,1.31519
857.54567,1.32225
855.48426,1.33007
853.42285,1.33879
851.36144,1.34829
849.30004,1.35803
847.23863,1.36705
845.17722,1.37605
843.11581,1.38628
841.05441,1.39597
838.99300,1.40344
836.93159,1.41016
834.87018,1.41813
832.80877,1.42824
830.74737,1.43873
828.68596,1.44704
826.62455,1.45428
824.56314,1.46138
822.50173,1.46800
820.44033,1.47517
818.37892,1.48151
816.31751,1.48638
814.25610,1.49130
812.19470,1.49691
810.13329,1.50324
808.07188,1.50851
806.01047,1.51229
803.94906,1.51676
801.88766,1.52175
799.82625,1.52677
797.76484,1.53303
795.70343,1.53901
793.64202,1.54505
791.58062,1.55355
789.51921,1.56266
787.45780,1.57225
785.39639,1.58223
783.33499,1.58844
781.27358,1.59224
779.21217,1.59875
777.15076,1.60714
775.08935,1.61339
773.02795,1.61866
770.96654,1.62645
768.90513,1.63445
766.84372,1.64025
764.78231,1.64482
762.72091,1.64839
760.65950,1.65257
758.59809,1.65771
756.53668,1.66228
754.47528,1.66843
752.41387,1.67696
750.35246,1.68513
748.29105,1.69008
746.22964,1.69094
744.16824,1.69105
742.10683,1.69102
740.04542,1.69038
737.98401,1.69071
735.92260,1.68881
733.86120,1.68284
731.79979,1.67519
729.73838,1.66693
727.67697,1.65918
725.61557,1.65510
723.55416,1.65619
721.49275,1.65823
719.43134,1.65732
717.36993,1.65408
715.30853,1.64885
713.24712,1.64226
711.18571,1.63858
709.12430,1.64151
707.06289,1.64846
705.00149,1.65418
702.94008,1.65597
700.87867,1.65248
698.81726,1.64650
696.75586,1.64386
694.69445,1.64578
692.63304,1.64877
690.57163,1.65238
688.51022,1.65949
686.44882,1.66798
684.38741,1.67487
682.32600,1.68320
680.26459,1.69402
678.20318,1.70315
676.14178,1.70940
674.08037,1.71451
672.01896,1.71702
669.95755,1.71440
667.89615,1.70936
665.83474,1.71154
663.77333,1.71288
661.71192,1.70657
659.65051,1.70135
657.58911,1.70267
655.52770,1.70022
653.46629,1.69344
651.40488,1.69323
649.34347,1.69793
647.28207,1.69887
645.22066,1.69404
643.15925,1.68870
641.09784,1.68668
639.03644,1.68556
636.97503,1.68337
634.91362,1.68468
632.85221,1.69327
630.79080,1.70696
628.72940,1.72199
626.66799,1.73690
624.60658,1.75040
622.54517,1.75859
620.48376,1.76249
618.42236,1.76516
616.36095,1.76742
614.29954,1.77195
612.23813,1.78032
610.17673,1.78833
608.11532,1.79339
606.05391,1.80075
603.99250,1.81240
601.93109,1.82076
599.86969,1.82629
597.80828,1.83954
595.74687,1.85891
593.68546,1.87736
591.62405,1.89298
589.56265,1.90201
587.50124,1.89862
585.43983,1.88839
583.37842,1.87776
581.31702,1.86034
579.25561,1.83157
577.19420,1.79920
575.13279,1.76814
573.07138,1.73019
571.00998,1.68314
568.94857,1.63211
566.88716,1.58050
564.82575,1.52738
562.76434,1.47107
560.70294,1.41666
558.64153,1.36661
556.58012,1.31699
554.51871,1.26731
552.45731,1.22255
550.39590,1.18563
548.33449,1.15273
546.27308,1.11999
544.21167,1.08865
542.15027,1.06008
540.08886,1.03459
538.02745,1.01235
535.96604,0.99155
533.90463,0.97174
531.84323,0.95425
529.78182,0.93838
527.72041,0.92344
525.65900,0.90778
523.59760,0.89129
521.53619,0.87826
519.47478,0.86899
517.41337,0.85990
515.35196,0.85099
513.29056,0.84562
511.22915,0.84490
509.16774,0.84673
507.10633,0.84775
505.04492,0.84832
502.98352,0.85029
500.92211,0.85098
498.86070,0.84928
496.79929,0.84716
494.73789,0.84360
492.67648,0.83630
490.61507,0.82548
488.55366,0.81228
486.49225,0.79542
484.43085,0.77325
482.36944,0.74855
480.30803,0.72592
478.24662,0.70598
476.18521,0.68860
474.12381,0.67427
472.06240,0.66022
470.00099,0.64782
467.93958,0.64158
465.87818,0.63938
463.81677,0.63930
461.75536,0.64273
459.69395,0.65017
457.63254,0.65813
455.57114,0.66228
453.50973,0.66693
451.44832,0.67428
449.38691,0.68249
447.32550,0.69250
445.26410,0.70474
443.20269,0.71869
441.14128,0.73199
439.07987,0.74484
437.01847,0.76074
434.95706,0.77600
432.89565,0.78650
430.83424,0.79445
428.77283,0.80142
426.71143,0.80946
424.65002,0.82120
422.58861,0.83895
420.52720,0.86358
418.46579,0.87235
416.40439,0.85360
414.34298,0.84180
412.28157,0.84187
410.22016,0.84592
408.15876,0.85228
406.09735,0.85886
404.03594,0.86464
401.97453,0.87592
399.91312,0.89287
