3997.06983,1.36545
3995.00842,1.36569
3992.94702,1.36571
3990.88561,1.36541
3988.82420,1.36573
3986.76279,1.36631
3984.70139,1.36627
3982.63998,1.36588
3980.57857,1.36560
3978.51716,1.36553
3976.45575,1.36582
3974.39435,1.36618
3972.33294,1.36667
3970.27153,1.36769
3968.21012,1.36894
3966.14871,1.36957
3964.08731,1.36936
3962.02590,1.36942
3959.96449,1.36991
3957.90308,1.36989
3955.84168,1.37011
3953.78027,1.37160
3951.71886,1.37328
3949.65745,1.37308
3947.59604,1.37133
3945.53464,1.37010
3943.47323,1.36955
3941.41182,1.37030
3939.35041,1.37300
3937.28900,1.37561
3935.22760,1.37639
3933.16619,1.37557
3931.10478,1.37456
3929.04337,1.37524
3926.98197,1.37764
3924.92056,1.38021
3922.85915,1.38199
3920.79774,1.38378
3918.73633,1.38596
3916.67493,1.38732
3914.61352,1.38837
3912.55211,1.39069
3910.49070,1.39349
3908.42929,1.39446
3906.36789,1.39331
3904.30648,1.39201
3902.24507,1.39269
3900.18366,1.39449
3898.12226,1.39523
3896.06085,1.39615
3893.99944,1.39790
3891.93803,1.39902
3889.87662,1.40030
3887.81522,1.40199
3885.75381,1.40127
3883.69240,1.39922
3881.63099,1.39910
3879.56958,1.40045
3877.50818,1.40253
3875.44677,1.40300
3873.38536,1.40040
3871.32395,1.39790
3869.26255,1.39748
3867.20114,1.39814
3865.13973,1.39815
3863.07832,1.39703
3861.01691,1.39649
3858.95551,1.39688
3856.89410,1.39693
3854.83269,1.39322
3852.77128,1.38730
3850.70987,1.38978
3848.64847,1.39539
3846.58706,1.39864
3844.52565,1.39842
3842.46424,1.39620
3840.40284,1.39431
3838.34143,1.39362
3836.28002,1.39512
3834.21861,1.39761
3832.15720,1.39932
3830.09580,1.40022
3828.03439,1.40059
3825.97298,1.40092
3823.91157,1.40255
3821.85016,1.40495
3819.78876,1.40615
3817.72735,1.40699
3815.66594,1.40798
3813.60453,1.40913
3811.54313,1.41065
3809.48172,1.41175
3807.42031,1.41205
3805.35890,1.41270
3803.29749,1.41344
3801.23609,1.41195
3799.17468,1.41086
3797.11327,1.41183
3795.05186,1.41243
3792.99045,1.41362
3790.92905,1.41552
3788.86764,1.41667
3786.80623,1.41766
3784.74482,1.41888
3782.68342,1.41938
3780.62201,1.41848
3778.56060,1.41804
3776.49919,1.42009
3774.43778,1.42257
3772.37638,1.42441
3770.31497,1.42626
3768.25356,1.42813
3766.19215,1.42976
3764.13074,1.43130
3762.06934,1.43335
3760.00793,1.43567
3757.94652,1.43772
3755.88511,1.43969
3753.82371,1.44112
3751.76230,1.44119
3749.70089,1.44202
3747.63948,1.44517
3745.57807,1.44752
3743.51667,1.44854
3741.45526,1.45137
3739.39385,1.45446
3737.33244,1.45496
3735.27103,1.45405
3733.20963,1.45605
3731.14822,1.46024
3729.08681,1.46410
3727.02540,1.46686
3724.96400,1.46875
3722.90259,1.47237
3720.84118,1.47753
3718.77977,1.48077
3716.71836,1.48228
3714.65696,1.48352
3712.59555,1.48448
3710.53414,1.48615
3708.47273,1.48922
3706.41132,1.49263
3704.34992,1.49607
3702.28851,1.49926
3700.22710,1.50218
3698.16569,1.50592
3696.10429,1.51035
3694.04288,1.51320
3691.98147,1.51368
3689.92006,1.51460
3687.85865,1.51862
3685.79725,1.52301
3683.73584,1.52682
3681.67443,1.53079
3679.61302,1.53334
3677.55161,1.53407
3675.49021,1.53503
3673.42880,1.53799
3671.36739,1.54257
3669.30598,1.54724
3667.24458,1.55182
3665.18317,1.55798
3663.12176,1.56449
3661.06035,1.56930
3658.99894,1.57339
3656.93754,1.57728
3654.87613,1.57955
3652.81472,1.58225
3650.75331,1.58656
3648.69190,1.59157
3646.63050,1.59834
3644.56909,1.60491
3642.50768,1.61067
3640.44627,1.61556
3638.38487,1.61988
3636.32346,1.62436
3634.26205,1.62788
3632.20064,1.63137
3630.13923,1.63819
3628.07783,1.64753
3626.01642,1.65471
3623.95501,1.66145
3621.89360,1.66920
3619.83219,1.67709
3617.77079,1.68171
3615.70938,1.68323
3613.64797,1.68608
3611.58656,1.69036
3609.52516,1.69292
3607.46375,1.69461
3605.40234,1.69894
3603.34093,1.70458
3601.27952,1.70816
3599.21812,1.70871
3597.15671,1.70928
3595.09530,1.71213
3593.03389,1.71536
3590.97248,1.71806
3588.91108,1.72226
3586.84967,1.72581
3584.78826,1.72579
3582.72685,1.72549
3580.66545,1.72717
3578.60404,1.73039
3576.54263,1.73375
3574.48122,1.73769
3572.41981,1.74257
3570.35841,1.74669
3568.29700,1.74858
3566.23559,1.75023
3564.17418,1.75546
3562.11277,1.76132
3560.05137,1.76257
3557.98996,1.76082
3555.92855,1.76230
3553.86714,1.76702
3551.80574,1.77124
3549.74433,1.77590
3547.68292,1.78181
3545.62151,1.78494
3543.56010,1.78605
3541.49870,1.78892
3539.43729,1.79205
3537.37588,1.79329
3535.31447,1.79360
3533.25306,1.79526
3531.19166,1.79756
3529.13025,1.79798
3527.06884,1.79768
3525.00743,1.79978
3522.94603,1.80292
3520.88462,1.80444
3518.82321,1.80512
3516.76180,1.80811
3514.70039,1.81271
3512.63899,1.81255
3510.57758,1.80989
3508.51617,1.81226
3506.45476,1.81662
3504.39335,1.81969
3502.33195,1.82218
3500.27054,1.82323
3498.20913,1.82273
3496.14772,1.82125
3494.08632,1.82094
3492.02491,1.82343
3489.96350,1.82660
3487.90209,1.82737
3485.84068,1.82566
3483.77928,1.82490
3481.71787,1.82551
3479.65646,1.82504
3477.59505,1.82570
3475.53364,1.82926
3473.47224,1.83314
3471.41083,1.83490
3469.34942,1.83558
3467.28801,1.83872
3465.22661,1.84348
3463.16520,1.84727
3461.10379,1.85013
3459.04238,1.85158
3456.98097,1.85353
3454.91957,1.85651
3452.85816,1.85785
3450.79675,1.85953
3448.73534,1.86481
3446.67393,1.87124
3444.61253,1.87528
3442.55112,1.87739
3440.48971,1.87632
3438.42830,1.87407
3436.36690,1.87593
3434.30549,1.87931
3432.24408,1.88109
3430.18267,1.88307
3428.12126,1.88473
3426.05986,1.88132
3423.99845,1.87097
3421.93704,1.85700
3419.87563,1.84135
3417.81422,1.82367
3415.75282,1.80342
3413.69141,1.78197
3411.63000,1.75977
3409.56859,1.73817
3407.50719,1.72103
3405.44578,1.70619
3403.38437,1.69181
3401.32296,1.68172
3399.26155,1.67691
3397.20015,1.67551
3395.13874,1.67673
3393.07733,1.68012
3391.01592,1.68492
3388.95451,1.69168
3386.89311,1.69992
3384.83170,1.70561
3382.77029,1.70746
3380.70888,1.70917
3378.64748,1.71227
3376.58607,1.71496
3374.52466,1.71831
3372.46325,1.72364
3370.40184,1.72769
3368.34044,1.72923
3366.27903,1.72971
3364.21762,1.72978
3362.15621,1.73080
3360.09480,1.73233
3358.03340,1.73386
3355.97199,1.73505
3353.91058,1.73401
3351.84917,1.73239
3349.78777,1.73268
3347.72636,1.73346
3345.66495,1.73283
3343.60354,1.73140
3341.54213,1.72905
3339.48073,1.72501
3337.41932,1.72132
3335.35791,1.71761
3333.29650,1.71216
3331.23509,1.70670
3329.17369,1.70164
3327.11228,1.69559
3325.05087,1.68902
3322.98946,1.68177
3320.92806,1.67385
3318.86665,1.66786
3316.80524,1.66323
3314.74383,1.65713
3312.68242,1.65097
3310.62102,1.64745
3308.55961,1.64630
3306.49820,1.64490
3304.43679,1.64197
3302.37538,1.63910
3300.31398,1.63779
3298.25257,1.63676
3296.19116,1.63503
3294.12975,1.63438
3292.06835,1.63414
3290.00694,1.63254
3287.94553,1.63102
3285.88412,1.63133
3283.82271,1.63317
3281.76131,1.63479
3279.69990,1.63588
3277.63849,1.63661
3275.57708,1.63689
3273.51567,1.63740
3271.45427,1.63780
3269.39286,1.63803
3267.33145,1.63882
3265.27004,1.63995
3263.20864,1.64126
3261.14723,1.64300
3259.08582,1.64410
3257.02441,1.64394
3254.96300,1.64443
3252.90160,1.64611
3250.84019,1.64719
3248.77878,1.64720
3246.71737,1.64681
3244.65596,1.64667
3242.59456,1.64726
3240.53315,1.64844
3238.47174,1.64984
3236.41033,1.65076
3234.34893,1.65076
3232.28752,1.64965
3230.22611,1.64784
3228.16470,1.64635
3226.10329,1.64581
3224.04189,1.64688
3221.98048,1.64838
3219.91907,1.64874
3217.85766,1.64804
3215.79625,1.64682
3213.73485,1.64661
3211.67344,1.64756
3209.61203,1.64759
3207.55062,1.64632
3205.48922,1.64553
3203.42781,1.64592
3201.36640,1.64632
3199.30499,1.64728
3197.24358,1.64983
3195.18218,1.65186
3193.12077,1.65207
3191.05936,1.65200
3188.99795,1.65208
3186.93654,1.65125
3184.87514,1.64984
3182.81373,1.64932
3180.75232,1.64914
3178.69091,1.64847
3176.62951,1.64728
3174.56810,1.64579
3172.50669,1.64550
3170.44528,1.64602
3168.38387,1.64512
3166.32247,1.64354
3164.26106,1.64384
3162.19965,1.64575
3160.13824,1.64731
3158.07683,1.64711
3156.01543,1.64540
3153.95402,1.64418
3151.89261,1.64383
3149.83120,1.64359
3147.76980,1.64350
3145.70839,1.64304
3143.64698,1.64246
3141.58557,1.64287
3139.52416,1.64314
3137.46276,1.64157
3135.40135,1.63986
3133.33994,1.63941
3131.27853,1.63905
3129.21713,1.63879
3127.15572,1.63919
3125.09431,1.63981
3123.03290,1.64026
3120.97149,1.64059
3118.91009,1.64032
3116.84868,1.63954
3114.78727,1.63985
3112.72586,1.64079
3110.66445,1.64091
3108.60305,1.64038
3106.54164,1.64000
3104.48023,1.64006
3102.41882,1.64061
3100.35742,1.64120
3098.29601,1.64105
3096.23460,1.64058
3094.17319,1.64050
3092.11178,1.64137
3090.05038,1.64296
3087.98897,1.64314
3085.92756,1.64163
3083.86615,1.64055
3081.80474,1.64007
3079.74334,1.63938
3077.68193,1.63839
3075.62052,1.63748
3073.55911,1.63710
3071.49771,1.63709
3069.43630,1.63708
3067.37489,1.63615
3065.31348,1.63499
3063.25207,1.63491
3061.19067,1.63468
3059.12926,1.63346
3057.06785,1.63225
3055.00644,1.63192
3052.94503,1.63219
3050.88363,1.63198
3048.82222,1.63071
3046.76081,1.62939
3044.69940,1.62948
3042.63800,1.63049
3040.57659,1.63041
3038.51518,1.62934
3036.45377,1.62886
3034.39236,1.62983
3032.33096,1.63133
3030.26955,1.63148
3028.20814,1.63071
3026.14673,1.62931
3024.08532,1.62729
3022.02392,1.62627
3019.96251,1.62617
3017.90110,1.62609
3015.83969,1.62619
3013.77829,1.62557
3011.71688,1.62401
3009.65547,1.62350
3007.59406,1.62437
3005.53265,1.62476
3003.47125,1.62411
3001.40984,1.62384
2999.34843,1.62469
2997.28702,1.62520
2995.22561,1.62464
2993.16421,1.62384
2991.10280,1.62348
2989.04139,1.62362
2986.97998,1.62367
2984.91858,1.62365
2982.85717,1.62350
2980.79576,1.62289
2978.73435,1.62304
2976.67294,1.62411
2974.61154,1.62423
2972.55013,1.62292
2970.48872,1.62127
2968.42731,1.62037
2966.36590,1.62057
2964.30450,1.62116
2962.24309,1.62151
2960.18168,1.62172
2958.12027,1.62196
2956.05887,1.62186
2953.99746,1.62154
2951.93605,1.62143
2949.87464,1.62119
2947.81323,1.62108
2945.75183,1.62136
2943.69042,1.62185
2941.62901,1.62309
2939.56760,1.62442
2937.50619,1.62432
2935.44479,1.62413
2933.38338,1.62497
2931.32197,1.62508
2929.26056,1.62444
2927.19916,1.62500
2925.13775,1.62632
2923.07634,1.62669
2921.01493,1.62614
2918.95352,1.62563
2916.89212,1.62578
2914.83071,1.62562
2912.76930,1.62432
2910.70789,1.62387
2908.64648,1.62474
2906.58508,1.62442
2904.52367,1.62310
2902.46226,1.62249
2900.40085,1.62241
2898.33945,1.62229
2896.27804,1.62240
2894.21663,1.62247
2892.15522,1.62121
2890.09381,1.61936
2888.03241,1.61867
2885.97100,1.61918
2883.90959,1.61975
2881.84818,1.61915
2879.78677,1.61763
2877.72537,1.61640
2875.66396,1.61599
2873.60255,1.61626
2871.54114,1.61685
2869.47974,1.61708
2867.41833,1.61690
2865.35692,1.61735
2863.29551,1.61842
2861.23410,1.61923
2859.17270,1.62009
2857.11129,1.62096
2855.04988,1.62119
2852.98847,1.62069
2850.92706,1.61895
2848.86566,1.61631
2846.80425,1.61455
2844.74284,1.61446
2842.68143,1.61526
2840.62003,1.61608
2838.55862,1.61627
2836.49721,1.61568
2834.43580,1.61500
2832.37439,1.61482
2830.31299,1.61510
2828.25158,1.61588
2826.19017,1.61692
2824.12876,1.61696
2822.06735,1.61679
2820.00595,1.61778
2817.94454,1.61798
2815.88313,1.61665
2813.82172,1.61602
2811.76032,1.61636
2809.69891,1.61626
2807.63750,1.61591
2805.57609,1.61582
2803.51468,1.61579
2801.45328,1.61600
2799.39187,1.61576
2797.33046,1.61461
2795.26905,1.61346
2793.20764,1.61157
2791.14624,1.60911
2789.08483,1.60864
2787.02342,1.60962
2784.96201,1.60871
2782.90061,1.60642
2780.83920,1.60549
2778.77779,1.60562
2776.71638,1.60525
2774.65497,1.60470
2772.59357,1.60504
2770.53216,1.60561
2768.47075,1.60558
2766.40934,1.60470
2764.34793,1.60311
2762.28653,1.60135
2760.22512,1.60007
2758.16371,1.59975
2756.10230,1.59950
2754.04090,1.59863
2751.97949,1.59769
2749.91808,1.59717
2747.85667,1.59698
2745.79526,1.59752
2743.73386,1.59937
2741.67245,1.60107
2739.61104,1.60083
2737.54963,1.59971
2735.48822,1.59900
2733.42682,1.59801
2731.36541,1.59701
2729.30400,1.59721
2727.24259,1.59771
2725.18119,1.59710
2723.11978,1.59654
2721.05837,1.59711
2718.99696,1.59741
2716.93555,1.59662
2714.87415,1.59585
2712.81274,1.59532
2710.75133,1.59512
2708.68992,1.59620
2706.62851,1.59720
2704.56711,1.59663
2702.50570,1.59585
2700.44429,1.59572
2698.38288,1.59602
2696.32148,1.59669
2694.26007,1.59713
2692.19866,1.59743
2690.13725,1.59786
2688.07584,1.59733
2686.01444,1.59620
2683.95303,1.59603
2681.89162,1.59657
2679.83021,1.59706
2677.76880,1.59688
2675.70740,1.59579
2673.64599,1.59478
2671.58458,1.59395
2669.52317,1.59334
2667.46177,1.59378
2665.40036,1.59425
2663.33895,1.59346
2661.27754,1.59239
2659.21613,1.59208
2657.15473,1.59211
2655.09332,1.59181
2653.03191,1.59140
2650.97050,1.59155
2648.90909,1.59222
2646.84769,1.59260
2644.78628,1.59250
2642.72487,1.59256
2640.66346,1.59285
2638.60206,1.59325
2636.54065,1.59331
2634.47924,1.59276
2632.41783,1.59284
2630.35642,1.59387
2628.29502,1.59541
2626.23361,1.59695
2624.17220,1.59698
2622.11079,1.59584
2620.04938,1.59585
2617.98798,1.59686
2615.92657,1.59721
2613.86516,1.59739
2611.80375,1.59842
2609.74235,1.59960
2607.68094,1.59984
2605.61953,1.59962
2603.55812,1.59978
2601.49671,1.60026
2599.43531,1.60136
2597.37390,1.60321
2595.31249,1.60512
2593.25108,1.60674
2591.18967,1.60768
2589.12827,1.60824
2587.06686,1.60931
2585.00545,1.61051
2582.94404,1.61119
2580.88264,1.61187
2578.82123,1.61337
2576.75982,1.61523
2574.69841,1.61581
2572.63700,1.61533
2570.57560,1.61598
2568.51419,1.61764
2566.45278,1.61882
2564.39137,1.62022
2562.32996,1.62162
2560.26856,1.62186
2558.20715,1.62180
2556.14574,1.62243
2554.08433,1.62369
2552.02293,1.62496
2549.96152,1.62573
2547.90011,1.62597
2545.83870,1.62571
2543.77729,1.62500
2541.71589,1.62413
2539.65448,1.62347
2537.59307,1.62313
2535.53166,1.62334
2533.47025,1.62363
2531.40885,1.62316
2529.34744,1.62234
2527.28603,1.62165
2525.22462,1.62062
2523.16322,1.61929
2521.10181,1.61831
2519.04040,1.61740
2516.97899,1.61600
2514.91758,1.61429
2512.85618,1.61311
2510.79477,1.61256
2508.73336,1.61206
2506.67195,1.61137
2504.61054,1.61041
2502.54914,1.60912
2500.48773,1.60768
2498.42632,1.60650
2496.36491,1.60543
2494.30351,1.60446
2492.24210,1.60427
2490.18069,1.60523
2488.11928,1.60675
2486.05787,1.60740
2483.99647,1.60657
2481.93506,1.60524
2479.87365,1.60465
2477.81224,1.60479
2475.75083,1.60486
2473.68943,1.60504
2471.62802,1.60542
2469.56661,1.60526
2467.50520,1.60529
2465.44380,1.60684
2463.38239,1.60898
2461.32098,1.60989
2459.25957,1.60994
2457.19816,1.61045
2455.13676,1.61139
2453.07535,1.61229
2451.01394,1.61287
2448.95253,1.61312
2446.89112,1.61327
2444.82972,1.61307
2442.76831,1.61322
2440.70690,1.61484
2438.64549,1.61691
2436.58409,1.61853
2434.52268,1.62002
2432.46127,1.62111
2430.39986,1.62192
2428.33845,1.62245
2426.27705,1.62196
2424.21564,1.62098
2422.15423,1.62023
2420.09282,1.61974
2418.03141,1.61949
2415.97001,1.61900
2413.90860,1.61831
2411.84719,1.61775
2409.78578,1.61669
2407.72438,1.61544
2405.66297,1.61484
2403.60156,1.61413
2401.54015,1.61214
2399.47874,1.60985
2397.41734,1.60836
2395.35593,1.60713
2393.29452,1.60577
2391.23311,1.60434
2389.17170,1.60270
2387.11030,1.60081
2385.04889,1.59885
2382.98748,1.59703
2380.92607,1.59544
2378.86467,1.59393
2376.80326,1.59214
2374.74185,1.59025
2372.68044,1.58824
2370.61903,1.58631
2368.55763,1.58520
2366.49622,1.58364
2364.43481,1.58043
2362.37340,1.57736
2360.31199,1.57507
2358.25059,1.57171
2356.18918,1.56906
2354.12777,1.56980
2352.06636,1.57276
2350.00496,1.57584
2347.94355,1.57831
2345.88214,1.57970
2343.82073,1.57859
2341.75932,1.57572
2339.69792,1.57314
2337.63651,1.57057
2335.57510,1.56851
2333.51369,1.56742
2331.45228,1.56704
2329.39088,1.56828
2327.32947,1.56994
2325.26806,1.57063
2323.20665,1.57068
2321.14525,1.57030
2319.08384,1.57034
2317.02243,1.57104
2314.96102,1.57133
2312.89961,1.57150
2310.83821,1.57224
2308.77680,1.57251
2306.71539,1.57246
2304.65398,1.57272
2302.59257,1.57302
2300.53117,1.57374
2298.46976,1.57401
2296.40835,1.57350
2294.34694,1.57396
2292.28554,1.57573
2290.22413,1.57720
2288.16272,1.57721
2286.10131,1.57641
2284.03990,1.57584
2281.97850,1.57575
2279.91709,1.57607
2277.85568,1.57710
2275.79427,1.57868
2273.73286,1.57959
2271.67146,1.57971
2269.61005,1.58012
2267.54864,1.58070
2265.48723,1.58057
2263.42583,1.58019
2261.36442,1.58090
2259.30301,1.58253
2257.24160,1.58361
2255.18019,1.58386
2253.11879,1.58430
2251.05738,1.58529
2248.99597,1.58635
2246.93456,1.58730
2244.87315,1.58787
2242.81175,1.58791
2240.75034,1.58812
2238.68893,1.58840
2236.62752,1.58854
2234.56612,1.58944
2232.50471,1.59053
2230.44330,1.59083
2228.38189,1.59128
2226.32048,1.59250
2224.25908,1.59371
2222.19767,1.59396
2220.13626,1.59368
2218.07485,1.59445
2216.01344,1.59583
2213.95204,1.59672
2211.89063,1.59780
2209.82922,1.59879
2207.76781,1.59897
2205.70641,1.59881
2203.64500,1.59888
2201.58359,1.59946
2199.52218,1.60041
2197.46077,1.60137
2195.39937,1.60199
2193.33796,1.60185
2191.27655,1.60189
2189.21514,1.60296
2187.15373,1.60420
2185.09233,1.60520
2183.03092,1.60614
2180.96951,1.60720
2178.90810,1.60834
2176.84670,1.60928
2174.78529,1.61015
2172.72388,1.61107
2170.66247,1.61198
2168.60106,1.61302
2166.53966,1.61404
2164.47825,1.61446
2162.41684,1.61375
2160.35543,1.61225
2158.29402,1.61095
2156.23262,1.61017
2154.17121,1.61006
2152.10980,1.61094
2150.04839,1.61228
2147.98699,1.61271
2145.92558,1.61175
2143.86417,1.61080
2141.80276,1.61065
2139.74135,1.61045
2137.67995,1.61023
2135.61854,1.61051
2133.55713,1.61071
2131.49572,1.61069
2129.43431,1.61110
2127.37291,1.61201
2125.31150,1.61292
2123.25009,1.61308
2121.18868,1.61219
2119.12728,1.61116
2117.06587,1.61067
2115.00446,1.61053
2112.94305,1.61045
2110.88164,1.61059
2108.82024,1.61169
2106.75883,1.61327
2104.69742,1.61432
2102.63601,1.61562
2100.57461,1.61770
2098.51320,1.61996
2096.45179,1.62172
2094.39038,1.62302
2092.32897,1.62422
2090.26757,1.62527
2088.20616,1.62702
2086.14475,1.63030
2084.08334,1.63406
2082.02193,1.63594
2079.96053,1.63553
2077.89912,1.63485
2075.83771,1.63500
2073.77630,1.63544
2071.71490,1.63535
2069.65349,1.63431
2067.59208,1.63217
2065.53067,1.62916
2063.46926,1.62642
2061.40786,1.62457
2059.34645,1.62261
2057.28504,1.62046
2055.22363,1.61881
2053.16222,1.61720
2051.10082,1.61556
2049.03941,1.61442
2046.97800,1.61291
2044.91659,1.61119
2042.85519,1.61080
2040.79378,1.61086
2038.73237,1.61006
2036.67096,1.60889
2034.60955,1.60780
2032.54815,1.60730
2030.48674,1.60769
2028.42533,1.60816
2026.36392,1.60799
2024.30251,1.60732
2022.24111,1.60679
2020.17970,1.60686
2018.11829,1.60799
2016.05688,1.60993
2013.99548,1.61101
2011.93407,1.61125
2009.87266,1.61225
2007.81125,1.61329
2005.74984,1.61333
2003.68844,1.61352
2001.62703,1.61457
1999.56562,1.61602
1997.50421,1.61704
1995.44280,1.61742
1993.38140,1.61812
1991.31999,1.61950
1989.25858,1.62099
1987.19717,1.62226
1985.13577,1.62378
1983.07436,1.62553
1981.01295,1.62626
1978.95154,1.62660
1976.89013,1.62813
1974.82873,1.63013
1972.76732,1.63110
1970.70591,1.63138
1968.64450,1.63254
1966.58309,1.63402
1964.52169,1.63464
1962.46028,1.63574
1960.39887,1.63752
1958.33746,1.63806
1956.27606,1.63742
1954.21465,1.63729
1952.15324,1.63747
1950.09183,1.63717
1948.03042,1.63725
1945.96902,1.63817
1943.90761,1.63978
1941.84620,1.64106
1939.78479,1.64115
1937.72338,1.64150
1935.66198,1.64256
1933.60057,1.64371
1931.53916,1.64427
1929.47775,1.64430
1927.41635,1.64523
1925.35494,1.64694
1923.29353,1.64736
1921.23212,1.64658
1919.17071,1.64640
1917.10931,1.64644
1915.04790,1.64585
1912.98649,1.64548
1910.92508,1.64692
1908.86367,1.64859
1906.80227,1.64741
1904.74086,1.64549
1902.67945,1.64580
1900.61804,1.64767
1898.55664,1.64957
1896.49523,1.65063
1894.43382,1.65101
1892.37241,1.65207
1890.31100,1.65284
1888.24960,1.65157
1886.18819,1.65045
1884.12678,1.65094
1882.06537,1.65158
1880.00396,1.65225
1877.94256,1.65400
1875.88115,1.65626
1873.81974,1.65828
1871.75833,1.66094
1869.69693,1.66399
1867.63552,1.66437
1865.57411,1.66274
1863.51270,1.66272
1861.45129,1.66522
1859.38989,1.66867
1857.32848,1.67103
1855.26707,1.67282
1853.20566,1.67480
1851.14425,1.67690
1849.08285,1.68017
1847.02144,1.68481
1844.96003,1.68951
1842.89862,1.69178
1840.83722,1.69228
1838.77581,1.69344
1836.71440,1.69431
1834.65299,1.69494
1832.59158,1.69718
1830.53018,1.70006
1828.46877,1.70112
1826.40736,1.70167
1824.34595,1.70224
1822.28454,1.70278
1820.22314,1.70515
1818.16173,1.70856
1816.10032,1.71177
1814.03891,1.71515
1811.97751,1.71860
1809.91610,1.72126
1807.85469,1.72245
1805.79328,1.72194
1803.73187,1.72147
1801.67047,1.72218
1799.60906,1.72224
1797.54765,1.72138
1795.48624,1.72063
1793.42483,1.71973
1791.36343,1.71759
1789.30202,1.71626
1787.24061,1.71782
1785.17920,1.72016
1783.11780,1.72157
1781.05639,1.72337
1778.99498,1.72512
1776.93357,1.72615
1774.87216,1.72882
1772.81076,1.73248
1770.74935,1.73155
1768.68794,1.72896
1766.62653,1.72878
1764.56512,1.73033
1762.50372,1.73223
1760.44231,1.73240
1758.38090,1.73190
1756.31949,1.73146
1754.25809,1.73215
1752.19668,1.73423
1750.13527,1.73335
1748.07386,1.73140
1746.01245,1.73352
1743.95105,1.73696
1741.88964,1.73984
1739.82823,1.74275
1737.76682,1.74622
1735.70541,1.75062
1733.64401,1.75261
1731.58260,1.75094
1729.52119,1.75151
1727.45978,1.75517
1725.39838,1.76057
1723.33697,1.76544
1721.27556,1.76944
1719.21415,1.77340
1717.15274,1.77483
1715.09134,1.77474
1713.02993,1.77610
1710.96852,1.77888
1708.90711,1.78352
1706.84570,1.78911
1704.78430,1.79332
1702.72289,1.79688
1700.66148,1.80003
1698.60007,1.80082
1696.53867,1.80267
1694.47726,1.80596
1692.41585,1.81028
1690.35444,1.81622
1688.29303,1.82118
1686.23163,1.82304
1684.17022,1.82384
1682.10881,1.82794
1680.04740,1.83366
1677.98599,1.83831
1675.92459,1.84180
1673.86318,1.84506
1671.80177,1.84912
1669.74036,1.85399
1667.67896,1.85950
1665.61755,1.86421
1663.55614,1.86686
1661.49473,1.86930
1659.43332,1.87392
1657.37192,1.87941
1655.31051,1.88351
1653.24910,1.88794
1651.18769,1.89428
1649.12628,1.89933
1647.06488,1.90471
1645.00347,1.91214
1642.94206,1.91985
1640.88065,1.92688
1638.81925,1.93294
1636.75784,1.93704
1634.69643,1.94267
1632.63502,1.94975
1630.57361,1.95546
1628.51221,1.96030
1626.45080,1.96589
1624.38939,1.97291
1622.32798,1.98311
1620.26657,1.99402
1618.20517,2.00220
1616.14376,2.01082
1614.08235,2.02216
1612.02094,2.03453
1609.95954,2.04567
1607.89813,2.05588
1605.83672,2.06710
1603.77531,2.08111
1601.71390,2.09742
1599.65250,2.11459
1597.59109,2.12805
1595.52968,2.14031
1593.46827,2.15979
1591.40686,2.18175
1589.34546,2.20050
1587.28405,2.21856
1585.22264,2.23919
1583.16123,2.25933
1581.09983,2.27793
1579.03842,2.29498
1576.97701,2.31673
1574.91560,2.34440
1572.85419,2.36569
1570.79279,2.38263
1568.73138,2.40461
1566.66997,2.42395
1564.60856,2.42713
1562.54715,2.41826
1560.48575,2.39041
1558.42434,2.31583
1556.36293,2.24103
1554.30152,2.17998
1552.24012,2.10803
1550.17871,2.02171
1548.11730,1.93229
1546.05589,1.85097
1543.99448,1.76845
1541.93308,1.68195
1539.87167,1.58056
1537.81026,1.51225
1535.74885,1.47589
1533.68744,1.43438
1531.62604,1.39447
1529.56463,1.36855
1527.50322,1.34485
1525.44181,1.32198
1523.38041,1.30321
1521.31900,1.28458
1519.25759,1.27161
1517.19618,1.26355
1515.13477,1.25612
1513.07337,1.24967
1511.01196,1.24230
1508.95055,1.23067
1506.88914,1.21368
1504.82773,1.20821
1502.76633,1.21083
1500.70492,1.21072
1498.64351,1.20786
1496.58210,1.20663
1494.52070,1.20977
1492.45929,1.21407
1490.39788,1.21874
1488.33647,1.22866
1486.27506,1.24530
1484.21366,1.26417
1482.15225,1.28522
1480.09084,1.30936
1478.02943,1.33399
1475.96802,1.35850
1473.90662,1.38551
1471.84521,1.41966
1469.78380,1.45149
1467.72239,1.47585
1465.66099,1.50048
1463.59958,1.52822
1461.53817,1.55152
1459.47676,1.56951
1457.41535,1.59458
1455.35395,1.63063
1453.29254,1.66027
1451.23113,1.68585
1449.16972,1.71015
1447.10831,1.73102
1445.04691,1.74487
1442.98550,1.74615
1440.92409,1.73054
1438.86268,1.69196
1436.80128,1.61794
1434.73987,1.53852
1432.67846,1.48169
1430.61705,1.43020
1428.55564,1.38385
1426.49424,1.34995
1424.43283,1.32242
1422.37142,1.29892
1420.31001,1.27610
1418.24860,1.24809
1416.18720,1.22348
1414.12579,1.20156
1412.06438,1.17571
1410.00297,1.14700
1407.94157,1.11881
1405.88016,1.09044
1403.81875,1.06363
1401.75734,1.04342
1399.69593,1.02661
1397.63453,1.01209
1395.57312,1.00262
1393.51171,0.99867
1391.45030,0.99958
1389.38889,1.00357
1387.32749,1.01001
1385.26608,1.01934
1383.20467,1.03088
1381.14326,1.04432
1379.08186,1.05904
1377.02045,1.07409
1374.95904,1.09003
1372.89763,1.10720
1370.83622,1.12346
1368.77482,1.13858
1366.71341,1.15271
1364.65200,1.16566
1362.59059,1.17844
1360.52918,1.19045
1358.46778,1.20121
1356.40637,1.21146
1354.34496,1.22164
1352.28355,1.23120
1350.22215,1.23993
1348.16074,1.24799
1346.09933,1.25544
1344.03792,1.26234
1341.97651,1.26906
1339.91511,1.27574
1337.85370,1.28178
1335.79229,1.28736
1333.73088,1.29268
1331.66947,1.29784
1329.60807,1.30307
1327.54666,1.30819
1325.48525,1.31285
1323.42384,1.31745
1321.36244,1.32230
1319.30103,1.32660
1317.23962,1.32988
1315.17821,1.33310
1313.11680,1.33682
1311.05540,1.34087
1308.99399,1.34496
1306.93258,1.34875
1304.87117,1.35241
1302.80976,1.35603
1300.74836,1.35942
1298.68695,1.36259
1296.62554,1.36599
1294.56413,1.36949
1292.50273,1.37294
1290.44132,1.37639
1288.37991,1.37936
1286.31850,1.38194
1284.25709,1.38460
1282.19569,1.38730
1280.13428,1.38995
1278.07287,1.39303
1276.01146,1.39644
1273.95005,1.39920
1271.88865,1.40127
1269.82724,1.40378
1267.76583,1.40661
1265.70442,1.40920
1263.64302,1.41182
1261.58161,1.41447
1259.52020,1.41738
1257.45879,1.42072
1255.39738,1.42400
1253.33598,1.42692
1251.27457,1.42923
1249.21316,1.43071
1247.15175,1.43246
1245.09034,1.43527
1243.02894,1.43821
1240.96753,1.44065
1238.90612,1.44320
1236.84471,1.44608
1234.78331,1.44832
1232.72190,1.45015
1230.66049,1.45264
1228.59908,1.45523
1226.53767,1.45738
1224.47627,1.45999
1222.41486,1.46353
1220.35345,1.46678
1218.29204,1.46912
1216.23063,1.47158
1214.16923,1.47408
1212.10782,1.47597
1210.04641,1.47835
1207.98500,1.48183
1205.92360,1.48512
1203.86219,1.48769
1201.80078,1.49021
1199.73937,1.49302
1197.67796,1.49611
1195.61656,1.49909
1193.55515,1.50208
1191.49374,1.50568
1189.43233,1.50920
1187.37092,1.51182
1185.30952,1.51438
1183.24811,1.51713
1181.18670,1.52050
1179.12529,1.52503
1177.06389,1.52947
1175.00248,1.53325
1172.94107,1.53629
1170.87966,1.53907
1168.81825,1.54295
1166.75685,1.54795
1164.69544,1.55335
1162.63403,1.55806
1160.57262,1.56187
1158.51121,1.56616
1156.44981,1.57039
1154.38840,1.57408
1152.32699,1.57920
1150.26558,1.58518
1148.20418,1.59000
1146.14277,1.59467
1144.08136,1.60032
1142.01995,1.60561
1139.95854,1.61029
1137.89714,1.61603
1135.83573,1.62314
1133.77432,1.63070
1131.71291,1.63864
1129.65150,1.64682
1127.59010,1.65377
1125.52869,1.65965
1123.46728,1.66675
1121.40587,1.67493
1119.34447,1.68239
1117.28306,1.68950
1115.22165,1.69721
1113.16024,1.70449
1111.09883,1.71095
1109.03743,1.71800
1106.97602,1.72418
1104.91461,1.72399
1102.85320,1.70981
1100.79179,1.67409
1098.73039,1.61828
1096.66898,1.56259
1094.60757,1.53289
1092.54616,1.53799
1090.48476,1.56849
1088.42335,1.60889
1086.36194,1.64825
1084.30053,1.68516
1082.23912,1.72219
1080.17772,1.75856
1078.11631,1.79341
1076.05490,1.83119
1073.99349,1.87291
1071.93208,1.90721
1069.87068,1.91939
1067.80927,1.89750
1065.74786,1.83346
1063.68645,1.73256
1061.62505,1.61341
1059.56364,1.49444
1057.50223,1.38820
1055.44082,1.30059
1053.37941,1.23182
1051.31801,1.18139
1049.25660,1.14895
1047.19519,1.13259
1045.13378,1.12952
1043.07238,1.13678
1041.01097,1.15173
1038.94956,1.17111
1036.88815,1.19144
1034.82674,1.21133
1032.76534,1.23059
1030.70393,1.24864
1028.64252,1.26489
1026.58111,1.27995
1024.51970,1.29440
1022.45830,1.30730
1020.39689,1.31797
1018.33548,1.32768
1016.27407,1.33773
1014.21267,1.34745
1012.15126,1.35566
1010.08985,1.36266
1008.02844,1.36920
1005.96703,1.37570
1003.90563,1.38314
1001.84422,1.39132
999.78281,1.39853
997.72140,1.40487
995.65999,1.41151
993.59859,1.41774
991.53718,1.42273
989.47577,1.42774
987.41436,1.43392
985.35296,1.44010
983.29155,1.44582
981.23014,1.45176
979.16873,1.45746
977.10732,1.46310
975.04592,1.46945
972.98451,1.47629
970.92310,1.48278
968.86169,1.48823
966.80028,1.49358
964.73888,1.50041
962.67747,1.50793
960.61606,1.51462
958.55465,1.52060
956.49325,1.52686
954.43184,1.53369
952.37043,1.54059
950.30902,1.54768
948.24761,1.55451
946.18621,1.56055
944.12480,1.56760
942.06339,1.57568
940.00198,1.58333
937.94057,1.59178
935.87917,1.60141
933.81776,1.61062
931.75635,1.61832
929.69494,1.62598
927.63354,1.63630
925.57213,1.64705
923.51072,1.65522
921.44931,1.66281
919.38790,1.67130
917.32650,1.67914
915.26509,1.68516
913.20368,1.68796
911.14227,1.68465
909.08086,1.67481
907.01946,1.65959
904.95805,1.63859
902.89664,1.61044
900.83523,1.57361
898.77383,1.52882
896.71242,1.48020
894.65101,1.43271
892.58960,1.38846
890.52819,1.34747
888.46679,1.31115
886.40538,1.28177
884.34397,1.25942
882.28256,1.24168
880.22115,1.22688
878.15975,1.21564
876.09834,1.20826
874.03693,1.20289
871.97552,1.19838
869.91412,1.19646
867.85271,1.19864
865.79130,1.20489
863.72989,1.21413
861.66848,1.22559
859.60708,1.23908
857.54567,1.25392
855.48426,1.26976
853.42285,1.28658
851.36144,1.30356
849.30004,1.32015
847.23863,1.33774
845.17722,1.35684
843.11581,1.37598
841.05441,1.39509
838.99300,1.41399
836.93159,1.43013
834.87018,1.43795
832.80877,1.43039
830.74737,1.40331
828.68596,1.35445
826.62455,1.28331
824.56314,1.20100
822.50173,1.13003
820.44033,1.08752
818.37892,1.07668
816.31751,1.09385
814.25610,1.13186
812.19470,1.17584
810.13329,1.21259
808.07188,1.24082
806.01047,1.26265
803.94906,1.27911
801.88766,1.29362
799.82625,1.30842
797.76484,1.32309
795.70343,1.33711
793.64202,1.34945
791.58062,1.35930
789.51921,1.36662
787.45780,1.37178
785.39639,1.37478
783.33499,1.37448
781.27358,1.37032
779.21217,1.36446
777.15076,1.35952
775.08935,1.35576
773.02795,1.35405
770.96654,1.35589
768.90513,1.36086
766.84372,1.36703
764.78231,1.37505
762.72091,1.38682
760.65950,1.39870
758.59809,1.40062
756.53668,1.37959
754.47528,1.33197
752.41387,1.27256
750.35246,1.22327
748.29105,1.19674
746.22964,1.19204
744.16824,1.20070
742.10683,1.21408
740.04542,1.22727
737.98401,1.23741
735.92260,1.24362
733.86120,1.24837
731.79979,1.25359
729.73838,1.25950
727.67697,1.26596
725.61557,1.27304
723.55416,1.28085
721.49275,1.28938
719.43134,1.29871
717.36993,1.30423
715.30853,1.29647
713.24712,1.27688
711.18571,1.26062
709.12430,1.25563
707.06289,1.25835
705.00149,1.26368
702.94008,1.26918
700.87867,1.27500
698.81726,1.28090
696.75586,1.28638
694.69445,1.29142
692.63304,1.29593
690.57163,1.30102
688.51022,1.30698
686.44882,1.31178
684.38741,1.31455
682.32600,1.31730
680.26459,1.32076
678.20318,1.32393
676.14178,1.32728
674.08037,1.33112
672.01896,1.33478
669.95755,1.33749
667.89615,1.34114
665.83474,1.34759
663.77333,1.35310
661.71192,1.35717
659.65051,1.36035
657.58911,1.36305
655.52770,1.36649
653.46629,1.37016
651.40488,1.37393
649.34347,1.37974
647.28207,1.38613
645.22066,1.39064
643.15925,1.39337
641.09784,1.39638
639.03644,1.40324
636.97503,1.41214
634.91362,1.41808
632.85221,1.42238
630.79080,1.42757
628.72940,1.43345
626.66799,1.43901
624.60658,1.44151
622.54517,1.44313
620.48376,1.44799
618.42236,1.45574
616.36095,1.46587
614.29954,1.47516
612.23813,1.47943
610.17673,1.48166
608.11532,1.48733
606.05391,1.49658
603.99250,1.50826
601.93109,1.52109
599.86969,1.53213
597.80828,1.54162
595.74687,1.54794
593.68546,1.54490
591.62405,1.52852
589.56265,1.49893
587.50124,1.45948
585.43983,1.41821
583.37842,1.38805
581.31702,1.37335
579.25561,1.36434
577.19420,1.34865
575.13279,1.32476
573.07138,1.30007
571.00998,1.27983
568.94857,1.26895
566.88716,1.27064
564.82575,1.28268
562.76434,1.30139
560.70294,1.32081
558.64153,1.33607
556.58012,1.34922
554.51871,1.36515
552.45731,1.38583
550.39590,1.41029
548.33449,1.43497
546.27308,1.45517
544.21167,1.47207
542.15027,1.49168
540.08886,1.51633
538.02745,1.53456
535.96604,1.53052
533.90463,1.49793
531.84323,1.43697
529.78182,1.35986
527.72041,1.28523
525.65900,1.22838
523.59760,1.20131
521.53619,1.20221
519.47478,1.22033
517.41337,1.24395
515.35196,1.26449
513.29056,1.27787
511.22915,1.28024
509.16774,1.26987
507.10633,1.24994
505.04492,1.22972
502.98352,1.21866
500.92211,1.21802
498.86070,1.22541
496.79929,1.23854
494.73789,1.25304
492.67648,1.26663
490.61507,1.27916
488.55366,1.28754
486.49225,1.28996
484.43085,1.28813
482.36944,1.28495
480.30803,1.28395
478.24662,1.28546
476.18521,1.29091
474.12381,1.30226
472.06240,1.31139
470.00099,1.31473
467.93958,1.32017
465.87818,1.32831
463.81677,1.33820
461.75536,1.35117
459.69395,1.36478
457.63254,1.37637
455.57114,1.38524
453.50973,1.39547
451.44832,1.40888
449.38691,1.42230
447.32550,1.43600
445.26410,1.45095
443.20269,1.46834
441.14128,1.48386
439.07987,1.48529
437.01847,1.47035
434.95706,1.43990
432.89565,1.39343
430.83424,1.34030
428.77283,1.29375
426.71143,1.26500
424.65002,1.26215
422.58861,1.27731
420.52720,1.29196
418.46579,1.30040
416.40439,1.31452
414.34298,1.33822
412.28157,1.37051
410.22016,1.40674
408.15876,1.43255
406.09735,1.45054
404.03594,1.47138
401.97453,1.48434
399.91312,1.48697
