3997.06983,1.17311
3995.00842,1.17354
3992.94702,1.17314
3990.88561,1.17257
3988.82420,1.17220
3986.76279,1.17227
3984.70139,1.17238
3982.63998,1.17227
3980.57857,1.17253
3978.51716,1.17264
3976.45575,1.17223
3974.39435,1.17205
3972.33294,1.17236
3970.27153,1.17283
3968.21012,1.17310
3966.14871,1.17321
3964.08731,1.17350
3962.02590,1.17354
3959.96449,1.17327
3957.90308,1.17344
3955.84168,1.17367
3953.78027,1.17359
3951.71886,1.17337
3949.65745,1.17268
3947.59604,1.17175
3945.53464,1.17161
3943.47323,1.17149
3941.41182,1.17055
3939.35041,1.17049
3937.28900,1.17148
3935.22760,1.17246
3933.16619,1.17274
3931.10478,1.17198
3929.04337,1.17207
3926.98197,1.17350
3924.92056,1.17386
3922.85915,1.17280
3920.79774,1.17237
3918.73633,1.17239
3916.67493,1.17168
3914.61352,1.17110
3912.55211,1.17199
3910.49070,1.17375
3908.42929,1.17507
3906.36789,1.17560
3904.30648,1.17468
3902.24507,1.17266
3900.18366,1.17119
3898.12226,1.17048
3896.06085,1.17107
3893.99944,1.17299
3891.93803,1.17364
3889.87662,1.17207
3887.81522,1.17184
3885.75381,1.17191
3883.69240,1.17103
3881.63099,1.17111
3879.56958,1.17027
3877.50818,1.17010
3875.44677,1.17213
3873.38536,1.17314
3871.32395,1.17217
3869.26255,1.17014
3867.20114,1.16914
3865.13973,1.16937
3863.07832,1.16848
3861.01691,1.16833
3858.95551,1.17049
3856.89410,1.17389
3854.83269,1.17507
3852.77128,1.16845
3850.70987,1.16538
3848.64847,1.16896
3846.58706,1.17237
3844.52565,1.17368
3842.46424,1.17385
3840.40284,1.17382
3838.34143,1.17217
3836.28002,1.16921
3834.21861,1.16866
3832.15720,1.16989
3830.09580,1.17070
3828.03439,1.17119
3825.97298,1.17110
3823.91157,1.17141
3821.85016,1.17142
3819.78876,1.16946
3817.72735,1.16930
3815.66594,1.16940
3813.60453,1.16891
3811.54313,1.17014
3809.48172,1.17208
3807.42031,1.17203
3805.35890,1.16987
3803.29749,1.16871
3801.23609,1.16685
3799.17468,1.16632
3797.11327,1.16830
3795.05186,1.16891
3792.99045,1.16913
3790.92905,1.17030
3788.86764,1.17185
3786.80623,1.17356
3784.74482,1.17385
3782.68342,1.17242
3780.62201,1.17067
3778.56060,1.16911
3776.49919,1.16893
3774.43778,1.16987
3772.37638,1.17108
3770.31497,1.17179
3768.25356,1.17092
3766.19215,1.16990
3764.13074,1.17001
3762.06934,1.17124
3760.00793,1.17204
3757.94652,1.17119
3755.88511,1.17109
3753.82371,1.17227
3751.76230,1.17065
3749.70089,1.16483
3747.63948,1.16331
3745.57807,1.16488
3743.51667,1.16350
3741.45526,1.16311
3739.39385,1.16574
3737.33244,1.16731
3735.27103,1.16503
3733.20963,1.16227
3731.14822,1.16303
3729.08681,1.16646
3727.02540,1.16893
3724.96400,1.16799
3722.90259,1.16642
3720.84118,1.16627
3718.77977,1.16650
3716.71836,1.16715
3714.65696,1.16866
3712.59555,1.16907
3710.53414,1.16674
3708.47273,1.16586
3706.41132,1.16742
3704.34992,1.16915
3702.28851,1.16952
3700.22710,1.16878
3698.16569,1.16878
3696.10429,1.16932
3694.04288,1.17019
3691.98147,1.17111
3689.92006,1.16939
3687.85865,1.16605
3685.79725,1.16607
3683.73584,1.16798
3681.67443,1.16947
3679.61302,1.17064
3677.55161,1.17159
3675.49021,1.16886
3673.42880,1.16525
3671.36739,1.16615
3669.30598,1.16703
3667.24458,1.16738
3665.18317,1.16941
3663.12176,1.17122
3661.06035,1.17185
3658.99894,1.17239
3656.93754,1.17210
3654.87613,1.17062
3652.81472,1.17187
3650.75331,1.17440
3648.69190,1.17087
3646.63050,1.16564
3644.56909,1.16586
3642.50768,1.16830
3640.44627,1.16960
3638.38487,1.16999
3636.32346,1.17097
3634.26205,1.17162
3632.20064,1.17251
3630.13923,1.17396
3628.07783,1.17079
3626.01642,1.16727
3623.95501,1.16863
3621.89360,1.17171
3619.83219,1.17283
3617.77079,1.17100
3615.70938,1.17054
3613.64797,1.17130
3611.58656,1.17112
3609.52516,1.17089
3607.46375,1.16998
3605.40234,1.16939
3603.34093,1.17060
3601.27952,1.17148
3599.21812,1.17101
3597.15671,1.17125
3595.09530,1.17186
3593.03389,1.17168
3590.97248,1.17269
3588.91108,1.17458
3586.84967,1.17347
3584.78826,1.17094
3582.72685,1.17030
3580.66545,1.17046
3578.60404,1.17085
3576.54263,1.17153
3574.48122,1.17201
3572.41981,1.17265
3570.35841,1.17407
3568.29700,1.17475
3566.23559,1.17270
3564.17418,1.17078
3562.11277,1.17087
3560.05137,1.17136
3557.98996,1.17140
3555.92855,1.17155
3553.86714,1.17198
3551.80574,1.17218
3549.74433,1.17256
3547.68292,1.17347
3545.62151,1.17353
3543.56010,1.17229
3541.49870,1.17133
3539.43729,1.17172
3537.37588,1.17271
3535.31447,1.17318
3533.25306,1.17365
3531.19166,1.17423
3529.13025,1.17412
3527.06884,1.17339
3525.00743,1.17273
3522.94603,1.17255
3520.88462,1.17278
3518.82321,1.17289
3516.76180,1.17316
3514.70039,1.17412
3512.63899,1.17493
3510.57758,1.17474
3508.51617,1.17393
3506.45476,1.17350
3504.39335,1.17335
3502.33195,1.17253
3500.27054,1.17210
3498.20913,1.17290
3496.14772,1.17361
3494.08632,1.17345
3492.02491,1.17295
3489.96350,1.17283
3487.90209,1.17287
3485.84068,1.17291
3483.77928,1.17348
3481.71787,1.17386
3479.65646,1.17341
3477.59505,1.17297
3475.53364,1.17296
3473.47224,1.17329
3471.41083,1.17354
3469.34942,1.17342
3467.28801,1.17335
3465.22661,1.17350
3463.16520,1.17351
3461.10379,1.17305
3459.04238,1.17285
3456.98097,1.17332
3454.91957,1.17339
3452.85816,1.17306
3450.79675,1.17322
3448.73534,1.17351
3446.67393,1.17324
3444.61253,1.17311
3442.55112,1.17357
3440.48971,1.17379
3438.42830,1.17389
3436.36690,1.17418
3434.30549,1.17420
3432.24408,1.17395
3430.18267,1.17364
3428.12126,1.17335
3426.05986,1.17299
3423.99845,1.17316
3421.93704,1.17412
3419.87563,1.17439
3417.81422,1.17371
3415.75282,1.17338
3413.69141,1.17397
3411.63000,1.17449
3409.56859,1.17394
3407.50719,1.17325
3405.44578,1.17338
3403.38437,1.17384
3401.32296,1.17417
3399.26155,1.17414
3397.20015,1.17363
3395.13874,1.17347
3393.07733,1.17382
3391.01592,1.17394
3388.95451,1.17404
3386.89311,1.17406
3384.83170,1.17368
3382.77029,1.17366
3380.70888,1.17389
3378.64748,1.17374
3376.58607,1.17367
3374.52466,1.17416
3372.46325,1.17452
3370.40184,1.17409
3368.34044,1.17370
3366.27903,1.17391
3364.21762,1.17398
3362.15621,1.17344
3360.09480,1.17270
3358.03340,1.17246
3355.97199,1.17234
3353.91058,1.17213
3351.84917,1.17274
3349.78777,1.17370
3347.72636,1.17386
3345.66495,1.17330
3343.60354,1.17266
3341.54213,1.17264
3339.48073,1.17314
3337.41932,1.17322
3335.35791,1.17253
3333.29650,1.17187
3331.23509,1.17206
3329.17369,1.17269
3327.11228,1.17279
3325.05087,1.17236
3322.98946,1.17251
3320.92806,1.17330
3318.86665,1.17335
3316.80524,1.17245
3314.74383,1.17181
3312.68242,1.17218
3310.62102,1.17341
3308.55961,1.17409
3306.49820,1.17348
3304.43679,1.17279
3302.37538,1.17231
3300.31398,1.17190
3298.25257,1.17194
3296.19116,1.17206
3294.12975,1.17188
3292.06835,1.17188
3290.00694,1.17213
3287.94553,1.17247
3285.88412,1.17323
3283.82271,1.17410
3281.76131,1.17436
3279.69990,1.17384
3277.63849,1.17321
3275.57708,1.17312
3273.51567,1.17333
3271.45427,1.17338
3269.39286,1.17306
3267.33145,1.17256
3265.27004,1.17240
3263.20864,1.17223
3261.14723,1.17159
3259.08582,1.17143
3257.02441,1.17232
3254.96300,1.17314
3252.90160,1.17303
3250.84019,1.17260
3248.77878,1.17270
3246.71737,1.17299
3244.65596,1.17276
3242.59456,1.17210
3240.53315,1.17180
3238.47174,1.17210
3236.41033,1.17231
3234.34893,1.17217
3232.28752,1.17183
3230.22611,1.17140
3228.16470,1.17157
3226.10329,1.17197
3224.04189,1.17184
3221.98048,1.17191
3219.91907,1.17222
3217.85766,1.17211
3215.79625,1.17202
3213.73485,1.17201
3211.67344,1.17188
3209.61203,1.17162
3207.55062,1.17117
3205.48922,1.17126
3203.42781,1.17213
3201.36640,1.17286
3199.30499,1.17312
3197.24358,1.17290
3195.18218,1.17192
3193.12077,1.17087
3191.05936,1.17079
3188.99795,1.17174
3186.93654,1.17284
3184.87514,1.17330
3182.81373,1.17296
3180.75232,1.17225
3178.69091,1.17160
3176.62951,1.17114
3174.56810,1.17110
3172.50669,1.17123
3170.44528,1.17120
3168.38387,1.17128
3166.32247,1.17153
3164.26106,1.17183
3162.19965,1.17209
3160.13824,1.17195
3158.07683,1.17133
3156.01543,1.17093
3153.95402,1.17106
3151.89261,1.17128
3149.83120,1.17137
3147.76980,1.17163
3145.70839,1.17198
3143.64698,1.17216
3141.58557,1.17222
3139.52416,1.17216
3137.46276,1.17206
3135.40135,1.17211
3133.33994,1.17219
3131.27853,1.17193
3129.21713,1.17153
3127.15572,1.17145
3125.09431,1.17163
3123.03290,1.17165
3120.97149,1.17168
3118.91009,1.17167
3116.84868,1.17125
3114.78727,1.17093
3112.72586,1.17119
3110.66445,1.17173
3108.60305,1.17193
3106.54164,1.17145
3104.48023,1.17066
3102.41882,1.17050
3100.35742,1.17113
3098.29601,1.17163
3096.23460,1.17144
3094.17319,1.17110
3092.11178,1.17143
3090.05038,1.17209
3087.98897,1.17216
3085.92756,1.17169
3083.86615,1.17119
3081.80474,1.17093
3079.74334,1.17108
3077.68193,1.17141
3075.62052,1.17158
3073.55911,1.17183
3071.49771,1.17233
3069.43630,1.17267
3067.37489,1.17246
3065.31348,1.17184
3063.25207,1.17136
3061.19067,1.17155
3059.12926,1.17209
3057.06785,1.17197
3055.00644,1.17147
3052.94503,1.17165
3050.88363,1.17215
3048.82222,1.17243
3046.76081,1.17239
3044.69940,1.17202
3042.63800,1.17168
3040.57659,1.17157
3038.51518,1.17166
3036.45377,1.17202
3034.39236,1.17251
3032.33096,1.17267
3030.26955,1.17252
3028.20814,1.17245
3026.14673,1.17245
3024.08532,1.17237
3022.02392,1.17217
3019.96251,1.17229
3017.90110,1.17289
3015.83969,1.17335
3013.77829,1.17333
3011.71688,1.17287
3009.65547,1.17234
3007.59406,1.17225
3005.53265,1.17244
3003.47125,1.17260
3001.40984,1.17269
2999.34843,1.17291
2997.28702,1.17352
2995.22561,1.17395
2993.16421,1.17363
2991.10280,1.17312
2989.04139,1.17287
2986.97998,1.17272
2984.91858,1.17282
2982.85717,1.17320
2980.79576,1.17346
2978.73435,1.17364
2976.67294,1.17390
2974.61154,1.17382
2972.55013,1.17345
2970.48872,1.17343
2968.42731,1.17400
2966.36590,1.17455
2964.30450,1.17458
2962.24309,1.17438
2960.18168,1.17440
2958.12027,1.17439
2956.05887,1.17400
2953.99746,1.17359
2951.93605,1.17342
2949.87464,1.17339
2947.81323,1.17357
2945.75183,1.17388
2943.69042,1.17429
2941.62901,1.17454
2939.56760,1.17435
2937.50619,1.17435
2935.44479,1.17493
2933.38338,1.17524
2931.32197,1.17496
2929.26056,1.17491
2927.19916,1.17500
2925.13775,1.17473
2923.07634,1.17464
2921.01493,1.17479
2918.95352,1.17472
2916.89212,1.17453
2914.83071,1.17443
2912.76930,1.17447
2910.70789,1.17445
2908.64648,1.17452
2906.58508,1.17469
2904.52367,1.17456
2902.46226,1.17400
2900.40085,1.17334
2898.33945,1.17303
2896.27804,1.17309
2894.21663,1.17292
2892.15522,1.17252
2890.09381,1.17232
2888.03241,1.17199
2885.97100,1.17184
2883.90959,1.17208
2881.84818,1.17221
2879.78677,1.17227
2877.72537,1.17239
2875.66396,1.17249
2873.60255,1.17262
2871.54114,1.17242
2869.47974,1.17201
2867.41833,1.17216
2865.35692,1.17277
2863.29551,1.17319
2861.23410,1.17320
2859.17270,1.17319
2857.11129,1.17330
2855.04988,1.17314
2852.98847,1.17284
2850.92706,1.17275
2848.86566,1.17302
2846.80425,1.17331
2844.74284,1.17331
2842.68143,1.17315
2840.62003,1.17291
2838.55862,1.17277
2836.49721,1.17301
2834.43580,1.17352
2832.37439,1.17376
2830.31299,1.17360
2828.25158,1.17334
2826.19017,1.17298
2824.12876,1.17266
2822.06735,1.17273
2820.00595,1.17308
2817.94454,1.17350
2815.88313,1.17391
2813.82172,1.17413
2811.76032,1.17416
2809.69891,1.17410
2807.63750,1.17418
2805.57609,1.17445
2803.51468,1.17470
2801.45328,1.17479
2799.39187,1.17479
2797.33046,1.17493
2795.26905,1.17507
2793.20764,1.17481
2791.14624,1.17408
2789.08483,1.17321
2787.02342,1.17253
2784.96201,1.17233
2782.90061,1.17259
2780.83920,1.17252
2778.77779,1.17191
2776.71638,1.17151
2774.65497,1.17158
2772.59357,1.17162
2770.53216,1.17145
2768.47075,1.17135
2766.40934,1.17139
2764.34793,1.17132
2762.28653,1.17087
2760.22512,1.17031
2758.16371,1.17030
2756.10230,1.17092
2754.04090,1.17139
2751.97949,1.17128
2749.91808,1.17106
2747.85667,1.17118
2745.79526,1.17139
2743.73386,1.17133
2741.67245,1.17079
2739.61104,1.17004
2737.54963,1.16980
2735.48822,1.17008
2733.42682,1.17025
2731.36541,1.17029
2729.30400,1.17047
2727.24259,1.17048
2725.18119,1.17010
2723.11978,1.16944
2721.05837,1.16883
2718.99696,1.16851
2716.93555,1.16852
2714.87415,1.16879
2712.81274,1.16921
2710.75133,1.16965
2708.68992,1.16988
2706.62851,1.16996
2704.56711,1.17010
2702.50570,1.17019
2700.44429,1.17025
2698.38288,1.17047
2696.32148,1.17082
2694.26007,1.17095
2692.19866,1.17065
2690.13725,1.17023
2688.07584,1.17027
2686.01444,1.17084
2683.95303,1.17127
2681.89162,1.17132
2679.83021,1.17127
2677.76880,1.17129
2675.70740,1.17174
2673.64599,1.17263
2671.58458,1.17331
2669.52317,1.17371
2667.46177,1.17420
2665.40036,1.17467
2663.33895,1.17498
2661.27754,1.17510
2659.21613,1.17499
2657.15473,1.17460
2655.09332,1.17397
2653.03191,1.17385
2650.97050,1.17434
2648.90909,1.17461
2646.84769,1.17455
2644.78628,1.17437
2642.72487,1.17412
2640.66346,1.17407
2638.60206,1.17422
2636.54065,1.17436
2634.47924,1.17456
2632.41783,1.17470
2630.35642,1.17457
2628.29502,1.17438
2626.23361,1.17423
2624.17220,1.17399
2622.11079,1.17381
2620.04938,1.17416
2617.98798,1.17477
2615.92657,1.17495
2613.86516,1.17473
2611.80375,1.17454
2609.74235,1.17441
2607.68094,1.17433
2605.61953,1.17453
2603.55812,1.17495
2601.49671,1.17489
2599.43531,1.17436
2597.37390,1.17395
2595.31249,1.17366
2593.25108,1.17350
2591.18967,1.17360
2589.12827,1.17363
2587.06686,1.17314
2585.00545,1.17223
2582.94404,1.17160
2580.88264,1.17138
2578.82123,1.17110
2576.75982,1.17079
2574.69841,1.17065
2572.63700,1.17048
2570.57560,1.17041
2568.51419,1.17047
2566.45278,1.17056
2564.39137,1.17070
2562.32996,1.17054
2560.26856,1.17018
2558.20715,1.17008
2556.14574,1.16997
2554.08433,1.16985
2552.02293,1.17012
2549.96152,1.17034
2547.90011,1.16978
2545.83870,1.16880
2543.77729,1.16855
2541.71589,1.16894
2539.65448,1.16919
2537.59307,1.16927
2535.53166,1.16932
2533.47025,1.16921
2531.40885,1.16876
2529.34744,1.16811
2527.28603,1.16773
2525.22462,1.16774
2523.16322,1.16762
2521.10181,1.16731
2519.04040,1.16707
2516.97899,1.16694
2514.91758,1.16678
2512.85618,1.16647
2510.79477,1.16638
2508.73336,1.16680
2506.67195,1.16721
2504.61054,1.16725
2502.54914,1.16747
2500.48773,1.16805
2498.42632,1.16847
2496.36491,1.16841
2494.30351,1.16788
2492.24210,1.16742
2490.18069,1.16750
2488.11928,1.16770
2486.05787,1.16772
2483.99647,1.16798
2481.93506,1.16833
2479.87365,1.16844
2477.81224,1.16850
2475.75083,1.16859
2473.68943,1.16885
2471.62802,1.16944
2469.56661,1.17001
2467.50520,1.17033
2465.44380,1.17056
2463.38239,1.17083
2461.32098,1.17110
2459.25957,1.17139
2457.19816,1.17167
2455.13676,1.17183
2453.07535,1.17182
2451.01394,1.17172
2448.95253,1.17151
2446.89112,1.17105
2444.82972,1.17072
2442.76831,1.17083
2440.70690,1.17081
2438.64549,1.17038
2436.58409,1.17009
2434.52268,1.17012
2432.46127,1.16994
2430.39986,1.16940
2428.33845,1.16913
2426.27705,1.16929
2424.21564,1.16955
2422.15423,1.16970
2420.09282,1.16953
2418.03141,1.16923
2415.97001,1.16924
2413.90860,1.16953
2411.84719,1.16973
2409.78578,1.16986
2407.72438,1.17017
2405.66297,1.17053
2403.60156,1.17073
2401.54015,1.17059
2399.47874,1.17012
2397.41734,1.16966
2395.35593,1.16946
2393.29452,1.16929
2391.23311,1.16916
2389.17170,1.16950
2387.11030,1.16995
2385.04889,1.16984
2382.98748,1.16955
2380.92607,1.16951
2378.86467,1.16950
2376.80326,1.16907
2374.74185,1.16774
2372.68044,1.16609
2370.61903,1.16484
2368.55763,1.16346
2366.49622,1.16184
2364.43481,1.16034
2362.37340,1.15910
2360.31199,1.15784
2358.25059,1.15680
2356.18918,1.15715
2354.12777,1.15887
2352.06636,1.16096
2350.00496,1.16343
2347.94355,1.16586
2345.88214,1.16646
2343.82073,1.16446
2341.75932,1.16231
2339.69792,1.16164
2337.63651,1.16125
2335.57510,1.16069
2333.51369,1.16058
2331.45228,1.16084
2329.39088,1.16142
2327.32947,1.16227
2325.26806,1.16310
2323.20665,1.16359
2321.14525,1.16376
2319.08384,1.16436
2317.02243,1.16562
2314.96102,1.16677
2312.89961,1.16728
2310.83821,1.16751
2308.77680,1.16779
2306.71539,1.16797
2304.65398,1.16811
2302.59257,1.16813
2300.53117,1.16799
2298.46976,1.16814
2296.40835,1.16841
2294.34694,1.16825
2292.28554,1.16791
2290.22413,1.16773
2288.16272,1.16770
2286.10131,1.16785
2284.03990,1.16801
2281.97850,1.16808
2279.91709,1.16806
2277.85568,1.16806
2275.79427,1.16798
2273.73286,1.16779
2271.67146,1.16760
2269.61005,1.16754
2267.54864,1.16765
2265.48723,1.16772
2263.42583,1.16766
2261.36442,1.16768
2259.30301,1.16818
2257.24160,1.16880
2255.18019,1.16885
2253.11879,1.16853
2251.05738,1.16844
2248.99597,1.16852
2246.93456,1.16840
2244.87315,1.16797
2242.81175,1.16738
2240.75034,1.16699
2238.68893,1.16699
2236.62752,1.16716
2234.56612,1.16711
2232.50471,1.16695
2230.44330,1.16679
2228.38189,1.16674
2226.32048,1.16681
2224.25908,1.16663
2222.19767,1.16623
2220.13626,1.16596
2218.07485,1.16593
2216.01344,1.16614
2213.95204,1.16622
2211.89063,1.16585
2209.82922,1.16548
2207.76781,1.16564
2205.70641,1.16598
2203.64500,1.16579
2201.58359,1.16514
2199.52218,1.16485
2197.46077,1.16520
2195.39937,1.16540
2193.33796,1.16498
2191.27655,1.16463
2189.21514,1.16478
2187.15373,1.16495
2185.09233,1.16473
2183.03092,1.16447
2180.96951,1.16455
2178.90810,1.16477
2176.84670,1.16477
2174.78529,1.16427
2172.72388,1.16342
2170.66247,1.16297
2168.60106,1.16310
2166.53966,1.16321
2164.47825,1.16291
2162.41684,1.16238
2160.35543,1.16208
2158.29402,1.16200
2156.23262,1.16211
2154.17121,1.16246
2152.10980,1.16266
2150.04839,1.16246
2147.98699,1.16220
2145.92558,1.16209
2143.86417,1.16205
2141.80276,1.16218
2139.74135,1.16233
2137.67995,1.16226
2135.61854,1.16215
2133.55713,1.16212
2131.49572,1.16209
2129.43431,1.16214
2127.37291,1.16229
2125.31150,1.16245
2123.25009,1.16285
2121.18868,1.16340
2119.12728,1.16360
2117.06587,1.16348
2115.00446,1.16340
2112.94305,1.16330
2110.88164,1.16314
2108.82024,1.16297
2106.75883,1.16295
2104.69742,1.16349
2102.63601,1.16420
2100.57461,1.16446
2098.51320,1.16451
2096.45179,1.16456
2094.39038,1.16452
2092.32897,1.16460
2090.26757,1.16472
2088.20616,1.16457
2086.14475,1.16444
2084.08334,1.16448
2082.02193,1.16444
2079.96053,1.16437
2077.89912,1.16448
2075.83771,1.16468
2073.77630,1.16492
2071.71490,1.16515
2069.65349,1.16540
2067.59208,1.16579
2065.53067,1.16594
2063.46926,1.16558
2061.40786,1.16513
2059.34645,1.16489
2057.28504,1.16494
2055.22363,1.16504
2053.16222,1.16477
2051.10082,1.16438
2049.03941,1.16427
2046.97800,1.16442
2044.91659,1.16479
2042.85519,1.16508
2040.79378,1.16499
2038.73237,1.16473
2036.67096,1.16445
2034.60955,1.16425
2032.54815,1.16428
2030.48674,1.16430
2028.42533,1.16414
2026.36392,1.16427
2024.30251,1.16468
2022.24111,1.16476
2020.17970,1.16470
2018.11829,1.16475
2016.05688,1.16472
2013.99548,1.16499
2011.93407,1.16550
2009.87266,1.16550
2007.81125,1.16479
2005.74984,1.16404
2003.68844,1.16383
2001.62703,1.16388
1999.56562,1.16371
1997.50421,1.16337
1995.44280,1.16314
1993.38140,1.16296
1991.31999,1.16202
1989.25858,1.16090
1987.19717,1.16068
1985.13577,1.16072
1983.07436,1.16043
1981.01295,1.16003
1978.95154,1.15972
1976.89013,1.15969
1974.82873,1.15999
1972.76732,1.15997
1970.70591,1.15959
1968.64450,1.15948
1966.58309,1.15932
1964.52169,1.15921
1962.46028,1.15951
1960.39887,1.15969
1958.33746,1.15966
1956.27606,1.15944
1954.21465,1.15900
1952.15324,1.15851
1950.09183,1.15802
1948.03042,1.15817
1945.96902,1.15928
1943.90761,1.16013
1941.84620,1.15937
1939.78479,1.15818
1937.72338,1.15825
1935.66198,1.15912
1933.60057,1.15991
1931.53916,1.16036
1929.47775,1.16044
1927.41635,1.16057
1925.35494,1.16118
1923.29353,1.16146
1921.23212,1.16132
1919.17071,1.16174
1917.10931,1.16148
1915.04790,1.16059
1912.98649,1.16075
1910.92508,1.16140
1908.86367,1.16125
1906.80227,1.16084
1904.74086,1.16087
1902.67945,1.16103
1900.61804,1.16131
1898.55664,1.16157
1896.49523,1.16171
1894.43382,1.16195
1892.37241,1.16282
1890.31100,1.16375
1888.24960,1.16335
1886.18819,1.16295
1884.12678,1.16345
1882.06537,1.16399
1880.00396,1.16436
1877.94256,1.16472
1875.88115,1.16500
1873.81974,1.16528
1871.75833,1.16661
1869.69693,1.16812
1867.63552,1.16679
1865.57411,1.16442
1863.51270,1.16377
1861.45129,1.16387
1859.38989,1.16366
1857.32848,1.16311
1855.26707,1.16263
1853.20566,1.16216
1851.14425,1.16166
1849.08285,1.16186
1847.02144,1.16321
1844.96003,1.16384
1842.89862,1.16146
1840.83722,1.15994
1838.77581,1.16069
1836.71440,1.16096
1834.65299,1.16076
1832.59158,1.16171
1830.53018,1.16229
1828.46877,1.16102
1826.40736,1.16032
1824.34595,1.15969
1822.28454,1.15874
1820.22314,1.15905
1818.16173,1.15980
1816.10032,1.15976
1814.03891,1.15955
1811.97751,1.15966
1809.91610,1.15914
1807.85469,1.15839
1805.79328,1.15874
1803.73187,1.16008
1801.67047,1.16069
1799.60906,1.15943
1797.54765,1.15831
1795.48624,1.15930
1793.42483,1.16075
1791.36343,1.15921
1789.30202,1.15736
1787.24061,1.15814
1785.17920,1.15921
1783.11780,1.15972
1781.05639,1.16022
1778.99498,1.16007
1776.93357,1.16086
1774.87216,1.16333
1772.81076,1.16407
1770.74935,1.16123
1768.68794,1.15927
1766.62653,1.15927
1764.56512,1.16085
1762.50372,1.16225
1760.44231,1.16164
1758.38090,1.16127
1756.31949,1.16093
1754.25809,1.16116
1752.19668,1.16288
1750.13527,1.16308
1748.07386,1.16179
1746.01245,1.16187
1743.95105,1.16285
1741.88964,1.16363
1739.82823,1.16328
1737.76682,1.16351
1735.70541,1.16563
1733.64401,1.16460
1731.58260,1.16126
1729.52119,1.16105
1727.45978,1.16194
1725.39838,1.16292
1723.33697,1.16363
1721.27556,1.16495
1719.21415,1.16666
1717.15274,1.16465
1715.09134,1.16097
1713.02993,1.16084
1710.96852,1.16224
1708.90711,1.16366
1706.84570,1.16428
1704.78430,1.16414
1702.72289,1.16555
1700.66148,1.16566
1698.60007,1.16240
1696.53867,1.16080
1694.47726,1.16026
1692.41585,1.16190
1690.35444,1.16432
1688.29303,1.16598
1686.23163,1.16759
1684.17022,1.16470
1682.10881,1.16065
1680.04740,1.16238
1677.98599,1.16539
1675.92459,1.16626
1673.86318,1.16561
1671.80177,1.16641
1669.74036,1.16653
1667.67896,1.16616
1665.61755,1.16840
1663.55614,1.16958
1661.49473,1.16779
1659.43332,1.16782
1657.37192,1.17047
1655.31051,1.17256
1653.24910,1.16769
1651.18769,1.16322
1649.12628,1.16644
1647.06488,1.16778
1645.00347,1.16633
1642.94206,1.16805
1640.88065,1.17068
1638.81925,1.17244
1636.75784,1.17151
1634.69643,1.16740
1632.63502,1.16783
1630.57361,1.17090
1628.51221,1.17186
1626.45080,1.17106
1624.38939,1.17051
1622.32798,1.17009
1620.26657,1.17112
1618.20517,1.17231
1616.14376,1.17099
1614.08235,1.17074
1612.02094,1.17246
1609.95954,1.17330
1607.89813,1.17325
1605.83672,1.17365
1603.77531,1.17436
1601.71390,1.17474
1599.65250,1.17503
1597.59109,1.17565
1595.52968,1.17645
1593.46827,1.17690
1591.40686,1.17673
1589.34546,1.17661
1587.28405,1.17707
1585.22264,1.17754
1583.16123,1.17765
1581.09983,1.17817
1579.03842,1.17959
1576.97701,1.17974
1574.91560,1.17859
1572.85419,1.17995
1570.79279,1.18125
1568.73138,1.18121
1566.66997,1.18305
1564.60856,1.18568
1562.54715,1.18816
1560.48575,1.18853
1558.42434,1.18177
1556.36293,1.18116
1554.30152,1.18640
1552.24012,1.19011
1550.17871,1.19056
1548.11730,1.18875
1546.05589,1.18697
1543.99448,1.18432
1541.93308,1.17896
1539.87167,1.17187
1537.81026,1.17171
1535.74885,1.17487
1533.68744,1.17497
1531.62604,1.17487
1529.56463,1.17802
1527.50322,1.18054
1525.44181,1.18084
1523.38041,1.17996
1521.31900,1.17723
1519.25759,1.17617
1517.19618,1.17717
1515.13477,1.17841
1513.07337,1.18062
1511.01196,1.18277
1508.95055,1.18233
1506.88914,1.17693
1504.82773,1.17669
1502.76633,1.18251
1500.70492,1.18682
1498.64351,1.18756
1496.58210,1.18626
1494.52070,1.18734
1492.45929,1.19006
1490.39788,1.18923
1488.33647,1.18420
1486.27506,1.18153
1484.21366,1.18206
1482.15225,1.18290
1480.09084,1.18284
1478.02943,1.18267
1475.96802,1.18202
1473.90662,1.17948
1471.84521,1.17630
1469.78380,1.17750
1467.72239,1.18108
1465.66099,1.18236
1463.59958,1.18179
1461.53817,1.18313
1459.47676,1.18435
1457.41535,1.18138
1455.35395,1.17994
1453.29254,1.18356
1451.23113,1.18700
1449.16972,1.18824
1447.10831,1.18755
1445.04691,1.18739
1442.98550,1.18849
1440.92409,1.18986
1438.86268,1.19046
1436.80128,1.18832
1434.73987,1.18624
1432.67846,1.18737
1430.61705,1.18863
1428.55564,1.18928
1426.49424,1.19101
1424.43283,1.19274
1422.37142,1.19382
1420.31001,1.19412
1418.24860,1.19219
1416.18720,1.19189
1414.12579,1.19451
1412.06438,1.19677
1410.00297,1.19782
1407.94157,1.19879
1405.88016,1.19982
1403.81875,1.20079
1401.75734,1.20282
1399.69593,1.20572
1397.63453,1.20840
1395.57312,1.21024
1393.51171,1.21044
1391.45030,1.21043
1389.38889,1.21145
1387.32749,1.21339
1385.26608,1.21674
1383.20467,1.22145
1381.14326,1.22645
1379.08186,1.23080
1377.02045,1.23415
1374.95904,1.23578
1372.89763,1.23518
1370.83622,1.23217
1368.77482,1.22520
1366.71341,1.21561
1364.65200,1.20600
1362.59059,1.19387
1360.52918,1.18040
1358.46778,1.17181
1356.40637,1.17016
1354.34496,1.17404
1352.28355,1.17994
1350.22215,1.18531
1348.16074,1.19028
1346.09933,1.19558
1344.03792,1.20119
1341.97651,1.20649
1339.91511,1.21080
1337.85370,1.21439
1335.79229,1.21795
1333.73088,1.22165
1331.66947,1.22574
1329.60807,1.23016
1327.54666,1.23415
1325.48525,1.23569
1323.42384,1.23187
1321.36244,1.22134
1319.30103,1.20565
1317.23962,1.18979
1315.17821,1.17893
1313.11680,1.17483
1311.05540,1.17639
1308.99399,1.17940
1306.93258,1.18004
1304.87117,1.17970
1302.80976,1.18257
1300.74836,1.19050
1298.68695,1.20219
1296.62554,1.21541
1294.56413,1.22894
1292.50273,1.24141
1290.44132,1.24984
1288.37991,1.24986
1286.31850,1.23769
1284.25709,1.21420
1282.19569,1.18596
1280.13428,1.16110
1278.07287,1.14473
1276.01146,1.13806
1273.95005,1.13932
1271.88865,1.14391
1269.82724,1.14528
1267.76583,1.13807
1265.70442,1.12256
1263.64302,1.10593
1261.58161,1.09623
1259.52020,1.09534
1257.45879,1.09961
1255.39738,1.10522
1253.33598,1.11100
1251.27457,1.11679
1249.21316,1.12237
1247.15175,1.12763
1245.09034,1.13245
1243.02894,1.13695
1240.96753,1.14148
1238.90612,1.14588
1236.84471,1.14989
1234.78331,1.15365
1232.72190,1.15761
1230.66049,1.16194
1228.59908,1.16600
1226.53767,1.16938
1224.47627,1.17271
1222.41486,1.17640
1220.35345,1.17998
1218.29204,1.18315
1216.23063,1.18515
1214.16923,1.18566
1212.10782,1.18593
1210.04641,1.18689
1207.98500,1.18892
1205.92360,1.19293
1203.86219,1.19894
1201.80078,1.20552
1199.73937,1.21174
1197.67796,1.21786
1195.61656,1.22363
1193.55515,1.22836
1191.49374,1.23192
1189.43233,1.23395
1187.37092,1.23320
1185.30952,1.22828
1183.24811,1.21820
1181.18670,1.20245
1179.12529,1.18239
1177.06389,1.16136
1175.00248,1.14310
1172.94107,1.13171
1170.87966,1.12970
1168.81825,1.13546
1166.75685,1.14508
1164.69544,1.15518
1162.63403,1.16390
1160.57262,1.17099
1158.51121,1.17787
1156.44981,1.18579
1154.38840,1.19358
1152.32699,1.20027
1150.26558,1.20798
1148.20418,1.21801
1146.14277,1.22825
1144.08136,1.23616
1142.01995,1.23859
1139.95854,1.23014
1137.89714,1.20733
1135.83573,1.17284
1133.77432,1.13400
1131.71291,1.09815
1129.65150,1.06948
1127.59010,1.04879
1125.52869,1.03503
1123.46728,1.02748
1121.40587,1.02626
1119.34447,1.03054
1117.28306,1.03819
1115.22165,1.04703
1113.16024,1.05574
1111.09883,1.06389
1109.03743,1.07152
1106.97602,1.07852
1104.91461,1.08474
1102.85320,1.09038
1100.79179,1.09581
1098.73039,1.10052
1096.66898,1.10348
1094.60757,1.10542
1092.54616,1.10795
1090.48476,1.11026
1088.42335,1.10954
1086.36194,1.10476
1084.30053,1.09913
1082.23912,1.09686
1080.17772,1.09865
1078.11631,1.10200
1076.05490,1.10467
1073.99349,1.10624
1071.93208,1.10710
1069.87068,1.10783
1067.80927,1.10882
1065.74786,1.11003
1063.68645,1.11133
1061.62505,1.11255
1059.56364,1.11339
1057.50223,1.11336
1055.44082,1.11295
1053.37941,1.11335
1051.31801,1.11486
1049.25660,1.11694
1047.19519,1.11886
1045.13378,1.12026
1043.07238,1.12109
1041.01097,1.12161
1038.94956,1.12234
1036.88815,1.12331
1034.82674,1.12439
1032.76534,1.12553
1030.70393,1.12651
1028.64252,1.12707
1026.58111,1.12748
1024.51970,1.12788
1022.45830,1.12801
1020.39689,1.12810
1018.33548,1.12844
1016.27407,1.12853
1014.21267,1.12795
1012.15126,1.12751
1010.08985,1.12798
1008.02844,1.12897
1005.96703,1.12992
1003.90563,1.13054
1001.84422,1.13072
999.78281,1.13061
997.72140,1.13090
995.65999,1.13178
993.59859,1.13263
991.53718,1.13350
989.47577,1.13465
987.41436,1.13611
985.35296,1.13742
983.29155,1.13781
981.23014,1.13782
979.16873,1.13851
977.10732,1.13985
975.04592,1.14145
972.98451,1.14336
970.92310,1.14585
968.86169,1.14873
966.80028,1.15090
964.73888,1.15213
962.67747,1.15350
960.61606,1.15545
958.55465,1.15757
956.49325,1.15938
954.43184,1.16091
952.37043,1.16220
950.30902,1.16272
948.24761,1.16289
946.18621,1.16399
944.12480,1.16633
942.06339,1.16917
940.00198,1.17134
937.94057,1.17252
935.87917,1.17280
933.81776,1.17120
931.75635,1.16735
929.69494,1.16288
927.63354,1.15854
925.57213,1.15289
923.51072,1.14491
921.44931,1.13599
919.38790,1.12899
917.32650,1.12470
915.26509,1.12141
913.20368,1.11862
911.14227,1.11669
909.08086,1.11560
907.01946,1.11581
904.95805,1.11728
902.89664,1.11945
900.83523,1.12166
898.77383,1.12324
896.71242,1.12453
894.65101,1.12601
892.58960,1.12755
890.52819,1.12893
888.46679,1.12999
886.40538,1.13080
884.34397,1.13143
882.28256,1.13207
880.22115,1.13296
878.15975,1.13430
876.09834,1.13621
874.03693,1.13778
871.97552,1.13821
869.91412,1.13783
867.85271,1.13672
865.79130,1.13495
863.72989,1.13349
861.66848,1.13292
859.60708,1.13277
857.54567,1.13247
855.48426,1.13206
853.42285,1.13191
851.36144,1.13203
849.30004,1.13276
847.23863,1.13422
845.17722,1.13537
843.11581,1.13563
841.05441,1.13518
838.99300,1.13480
836.93159,1.13511
834.87018,1.13511
832.80877,1.13419
830.74737,1.13356
828.68596,1.13438
826.62455,1.13649
824.56314,1.13908
822.50173,1.14174
820.44033,1.14465
818.37892,1.14751
816.31751,1.15088
814.25610,1.15639
812.19470,1.16357
810.13329,1.17052
808.07188,1.17578
806.01047,1.17820
803.94906,1.17687
801.88766,1.17112
799.82625,1.16180
797.76484,1.15314
795.70343,1.14976
793.64202,1.15104
791.58062,1.15381
789.51921,1.15688
787.45780,1.16021
785.39639,1.16331
783.33499,1.16490
781.27358,1.16496
779.21217,1.16516
777.15076,1.16669
775.08935,1.16953
773.02795,1.17344
770.96654,1.17704
768.90513,1.17644
766.84372,1.16805
764.78231,1.15664
762.72091,1.15278
760.65950,1.15831
758.59809,1.16607
756.53668,1.17280
754.47528,1.18065
752.41387,1.18880
750.35246,1.19000
748.29105,1.17430
746.22964,1.14642
744.16824,1.12650
742.10683,1.12197
740.04542,1.12368
737.98401,1.12475
735.92260,1.12456
733.86120,1.12290
731.79979,1.12026
729.73838,1.11880
727.67697,1.11959
725.61557,1.12204
723.55416,1.12539
721.49275,1.12897
719.43134,1.13260
717.36993,1.13641
715.30853,1.13936
713.24712,1.14006
711.18571,1.13872
709.12430,1.13661
707.06289,1.13435
705.00149,1.13167
702.94008,1.12887
700.87867,1.12623
698.81726,1.12338
696.75586,1.12136
694.69445,1.12161
692.63304,1.12288
690.57163,1.12388
688.51022,1.12527
686.44882,1.12687
684.38741,1.12819
682.32600,1.12949
680.26459,1.13093
678.20318,1.13204
676.14178,1.13232
674.08037,1.13242
672.01896,1.13337
669.95755,1.13448
667.89615,1.13360
665.83474,1.13361
663.77333,1.13610
661.71192,1.13821
659.65051,1.13883
657.58911,1.13868
655.52770,1.13829
653.46629,1.13802
651.40488,1.13845
649.34347,1.13936
647.28207,1.13961
645.22066,1.13947
643.15925,1.13987
641.09784,1.14057
639.03644,1.14095
636.97503,1.14063
634.91362,1.14096
632.85221,1.14202
630.79080,1.14192
628.72940,1.14144
626.66799,1.14142
624.60658,1.14173
622.54517,1.14261
620.48376,1.14427
618.42236,1.14604
616.36095,1.14633
614.29954,1.14654
612.23813,1.14795
610.17673,1.14837
608.11532,1.14642
606.05391,1.14327
603.99250,1.14138
601.93109,1.14135
599.86969,1.14127
597.80828,1.14116
595.74687,1.14220
593.68546,1.14343
591.62405,1.14464
589.56265,1.14708
587.50124,1.15001
585.43983,1.15224
583.37842,1.15417
581.31702,1.15550
579.25561,1.15567
577.19420,1.15518
575.13279,1.15418
573.07138,1.15258
571.00998,1.15094
568.94857,1.14946
566.88716,1.14737
564.82575,1.14511
562.76434,1.14402
560.70294,1.14452
558.64153,1.14585
556.58012,1.14699
554.51871,1.14780
552.45731,1.14775
550.39590,1.14728
548.33449,1.14750
546.27308,1.14711
544.21167,1.14638
542.15027,1.14800
540.08886,1.15033
538.02745,1.15055
535.96604,1.14916
533.90463,1.14705
531.84323,1.14544
529.78182,1.14401
527.72041,1.14126
525.65900,1.13775
523.59760,1.13427
521.53619,1.13055
519.47478,1.12801
517.41337,1.12814
515.35196,1.13134
513.29056,1.13821
511.22915,1.14378
509.16774,1.14241
507.10633,1.13652
505.04492,1.13149
502.98352,1.12886
500.92211,1.12917
498.86070,1.13407
496.79929,1.14165
494.73789,1.14900
492.67648,1.15514
490.61507,1.15930
488.55366,1.16117
486.49225,1.16154
484.43085,1.16034
482.36944,1.15966
480.30803,1.16030
478.24662,1.15883
476.18521,1.15547
474.12381,1.15246
472.06240,1.15044
470.00099,1.14915
467.93958,1.14844
465.87818,1.15050
463.81677,1.15459
461.75536,1.15708
459.69395,1.15893
457.63254,1.15748
455.57114,1.14747
453.50973,1.13551
451.44832,1.12963
449.38691,1.13202
447.32550,1.13535
445.26410,1.13231
443.20269,1.12410
441.14128,1.11513
439.07987,1.10764
437.01847,1.10180
434.95706,1.09711
432.89565,1.09035
430.83424,1.08116
428.77283,1.07503
426.71143,1.07597
424.65002,1.08236
422.58861,1.08821
420.52720,1.08940
418.46579,1.07976
416.40439,1.06398
414.34298,1.05737
412.28157,1.05747
410.22016,1.05638
408.15876,1.05447
406.09735,1.05467
404.03594,1.05358
401.97453,1.04936
399.91312,1.04761
