3997.06983,1.16087
3995.00842,1.16067
3992.94702,1.16019
3990.88561,1.15940
3988.82420,1.15927
3986.76279,1.16004
3984.70139,1.16028
3982.63998,1.15955
3980.57857,1.15893
3978.51716,1.15908
3976.45575,1.15959
3974.39435,1.15951
3972.33294,1.15891
3970.27153,1.15890
3968.21012,1.15988
3966.14871,1.16092
3964.08731,1.16093
3962.02590,1.16040
3959.96449,1.15997
3957.90308,1.15988
3955.84168,1.16047
3953.78027,1.16120
3951.71886,1.16114
3949.65745,1.16051
3947.59604,1.15997
3945.53464,1.15936
3943.47323,1.15893
3941.41182,1.15905
3939.35041,1.15922
3937.28900,1.15920
3935.22760,1.15937
3933.16619,1.15995
3931.10478,1.16054
3929.04337,1.16051
3926.98197,1.16026
3924.92056,1.16016
3922.85915,1.15984
3920.79774,1.15965
3918.73633,1.15972
3916.67493,1.15956
3914.61352,1.15955
3912.55211,1.15997
3910.49070,1.16019
3908.42929,1.16003
3906.36789,1.15995
3904.30648,1.16003
3902.24507,1.15972
3900.18366,1.15874
3898.12226,1.15775
3896.06085,1.15731
3893.99944,1.15738
3891.93803,1.15776
3889.87662,1.15804
3887.81522,1.15793
3885.75381,1.15749
3883.69240,1.15698
3881.63099,1.15729
3879.56958,1.15849
3877.50818,1.15909
3875.44677,1.15923
3873.38536,1.15943
3871.32395,1.15949
3869.26255,1.15961
3867.20114,1.15903
3865.13973,1.15823
3863.07832,1.15776
3861.01691,1.15753
3858.95551,1.15792
3856.89410,1.15837
3854.83269,1.15778
3852.77128,1.15584
3850.70987,1.15585
3848.64847,1.15822
3846.58706,1.16005
3844.52565,1.15950
3842.46424,1.15751
3840.40284,1.15617
3838.34143,1.15597
3836.28002,1.15627
3834.21861,1.15709
3832.15720,1.15818
3830.09580,1.15879
3828.03439,1.15920
3825.97298,1.15908
3823.91157,1.15810
3821.85016,1.15758
3819.78876,1.15766
3817.72735,1.15734
3815.66594,1.15725
3813.60453,1.15771
3811.54313,1.15856
3809.48172,1.15919
3807.42031,1.15891
3805.35890,1.15816
3803.29749,1.15722
3801.23609,1.15595
3799.17468,1.15571
3797.11327,1.15661
3795.05186,1.15732
3792.99045,1.15812
3790.92905,1.15937
3788.86764,1.16003
3786.80623,1.15970
3784.74482,1.15850
3782.68342,1.15672
3780.62201,1.15555
3778.56060,1.15568
3776.49919,1.15629
3774.43778,1.15669
3772.37638,1.15672
3770.31497,1.15665
3768.25356,1.15687
3766.19215,1.15722
3764.13074,1.15742
3762.06934,1.15702
3760.00793,1.15614
3757.94652,1.15566
3755.88511,1.15576
3753.82371,1.15486
3751.76230,1.15204
3749.70089,1.14973
3747.63948,1.15003
3745.57807,1.15090
3743.51667,1.15021
3741.45526,1.14889
3739.39385,1.14816
3737.33244,1.14701
3735.27103,1.14580
3733.20963,1.14666
3731.14822,1.14893
3729.08681,1.15100
3727.02540,1.15218
3724.96400,1.15213
3722.90259,1.15160
3720.84118,1.15154
3718.77977,1.15203
3716.71836,1.15272
3714.65696,1.15306
3712.59555,1.15262
3710.53414,1.15159
3708.47273,1.15206
3706.41132,1.15355
3704.34992,1.15392
3702.28851,1.15369
3700.22710,1.15405
3698.16569,1.15427
3696.10429,1.15369
3694.04288,1.15282
3691.98147,1.15235
3689.92006,1.15256
3687.85865,1.15340
3685.79725,1.15407
3683.73584,1.15463
3681.67443,1.15520
3679.61302,1.15528
3677.55161,1.15513
3675.49021,1.15514
3673.42880,1.15431
3671.36739,1.15391
3669.30598,1.15480
3667.24458,1.15545
3665.18317,1.15609
3663.12176,1.15686
3661.06035,1.15702
3658.99894,1.15714
3656.93754,1.15746
3654.87613,1.15696
3652.81472,1.15665
3650.75331,1.15741
3648.69190,1.15768
3646.63050,1.15686
3644.56909,1.15652
3642.50768,1.15709
3640.44627,1.15814
3638.38487,1.15880
3636.32346,1.15851
3634.26205,1.15782
3632.20064,1.15797
3630.13923,1.15940
3628.07783,1.16007
3626.01642,1.15850
3623.95501,1.15719
3621.89360,1.15706
3619.83219,1.15764
3617.77079,1.15763
3615.70938,1.15744
3613.64797,1.15778
3611.58656,1.15767
3609.52516,1.15752
3607.46375,1.15763
3605.40234,1.15729
3603.34093,1.15732
3601.27952,1.15800
3599.21812,1.15831
3597.15671,1.15836
3595.09530,1.15864
3593.03389,1.15885
3590.97248,1.15959
3588.91108,1.16112
3586.84967,1.16130
3584.78826,1.16004
3582.72685,1.15965
3580.66545,1.15958
3578.60404,1.15924
3576.54263,1.15921
3574.48122,1.15918
3572.41981,1.15897
3570.35841,1.15978
3568.29700,1.16154
3566.23559,1.16176
3564.17418,1.16016
3562.11277,1.15911
3560.05137,1.15910
3557.98996,1.15917
3555.92855,1.15889
3553.86714,1.15879
3551.80574,1.15896
3549.74433,1.15902
3547.68292,1.15958
3545.62151,1.16079
3543.56010,1.16109
3541.49870,1.16053
3539.43729,1.16023
3537.37588,1.16001
3535.31447,1.15984
3533.25306,1.16001
3531.19166,1.16045
3529.13025,1.16113
3527.06884,1.16151
3525.00743,1.16144
3522.94603,1.16137
3520.88462,1.16113
3518.82321,1.16073
3516.76180,1.16067
3514.70039,1.16097
3512.63899,1.16130
3510.57758,1.16136
3508.51617,1.16097
3506.45476,1.16072
3504.39335,1.16074
3502.33195,1.16034
3500.27054,1.16004
3498.20913,1.16048
3496.14772,1.16085
3494.08632,1.16052
3492.02491,1.16026
3489.96350,1.16070
3487.90209,1.16117
3485.84068,1.16091
3483.77928,1.16054
3481.71787,1.16094
3479.65646,1.16177
3477.59505,1.16211
3475.53364,1.16178
3473.47224,1.16141
3471.41083,1.16140
3469.34942,1.16182
3467.28801,1.16238
3465.22661,1.16275
3463.16520,1.16289
3461.10379,1.16248
3459.04238,1.16193
3456.98097,1.16186
3454.91957,1.16190
3452.85816,1.16191
3450.79675,1.16197
3448.73534,1.16205
3446.67393,1.16223
3444.61253,1.16230
3442.55112,1.16195
3440.48971,1.16112
3438.42830,1.16069
3436.36690,1.16119
3434.30549,1.16187
3432.24408,1.16219
3430.18267,1.16203
3428.12126,1.16164
3426.05986,1.16152
3423.99845,1.16180
3421.93704,1.16219
3419.87563,1.16217
3417.81422,1.16189
3415.75282,1.16190
3413.69141,1.16210
3411.63000,1.16214
3409.56859,1.16200
3407.50719,1.16200
3405.44578,1.16202
3403.38437,1.16178
3401.32296,1.16164
3399.26155,1.16171
3397.20015,1.16158
3395.13874,1.16139
3393.07733,1.16136
3391.01592,1.16136
3388.95451,1.16147
3386.89311,1.16158
3384.83170,1.16157
3382.77029,1.16149
3380.70888,1.16111
3378.64748,1.16086
3376.58607,1.16120
3374.52466,1.16149
3372.46325,1.16124
3370.40184,1.16079
3368.34044,1.16075
3366.27903,1.16105
3364.21762,1.16119
3362.15621,1.16097
3360.09480,1.16071
3358.03340,1.16086
3355.97199,1.16123
3353.91058,1.16118
3351.84917,1.16081
3349.78777,1.16095
3347.72636,1.16185
3345.66495,1.16273
3343.60354,1.16264
3341.54213,1.16184
3339.48073,1.16133
3337.41932,1.16099
3335.35791,1.16071
3333.29650,1.16070
3331.23509,1.16072
3329.17369,1.16082
3327.11228,1.16107
3325.05087,1.16136
3322.98946,1.16165
3320.92806,1.16168
3318.86665,1.16126
3316.80524,1.16084
3314.74383,1.16094
3312.68242,1.16146
3310.62102,1.16167
3308.55961,1.16106
3306.49820,1.16014
3304.43679,1.15965
3302.37538,1.15959
3300.31398,1.15966
3298.25257,1.15982
3296.19116,1.15994
3294.12975,1.15998
3292.06835,1.16025
3290.00694,1.16057
3287.94553,1.16069
3285.88412,1.16065
3283.82271,1.16036
3281.76131,1.16022
3279.69990,1.16047
3277.63849,1.16063
3275.57708,1.16051
3273.51567,1.16036
3271.45427,1.16059
3269.39286,1.16103
3267.33145,1.16133
3265.27004,1.16136
3263.20864,1.16118
3261.14723,1.16115
3259.08582,1.16119
3257.02441,1.16082
3254.96300,1.16031
3252.90160,1.15993
3250.84019,1.15979
3248.77878,1.16016
3246.71737,1.16055
3244.65596,1.16044
3242.59456,1.16019
3240.53315,1.16008
3238.47174,1.16006
3236.41033,1.16015
3234.34893,1.16021
3232.28752,1.15997
3230.22611,1.15979
3228.16470,1.16011
3226.10329,1.16049
3224.04189,1.16036
3221.98048,1.16017
3219.91907,1.16031
3217.85766,1.16033
3215.79625,1.16050
3213.73485,1.16080
3211.67344,1.16079
3209.61203,1.16072
3207.55062,1.16063
3205.48922,1.16048
3203.42781,1.16060
3201.36640,1.16091
3199.30499,1.16073
3197.24358,1.16008
3195.18218,1.15971
3193.12077,1.15961
3191.05936,1.15985
3188.99795,1.16047
3186.93654,1.16077
3184.87514,1.16060
3182.81373,1.16014
3180.75232,1.15970
3178.69091,1.15956
3176.62951,1.15955
3174.56810,1.15961
3172.50669,1.15963
3170.44528,1.15951
3168.38387,1.15951
3166.32247,1.15986
3164.26106,1.16014
3162.19965,1.16010
3160.13824,1.16034
3158.07683,1.16070
3156.01543,1.16047
3153.95402,1.15995
3151.89261,1.15966
3149.83120,1.15944
3147.76980,1.15933
3145.70839,1.15946
3143.64698,1.15955
3141.58557,1.15963
3139.52416,1.15997
3137.46276,1.16038
3135.40135,1.16042
3133.33994,1.16012
3131.27853,1.16005
3129.21713,1.16045
3127.15572,1.16074
3125.09431,1.16053
3123.03290,1.16044
3120.97149,1.16059
3118.91009,1.16052
3116.84868,1.16050
3114.78727,1.16060
3112.72586,1.16059
3110.66445,1.16052
3108.60305,1.16031
3106.54164,1.15989
3104.48023,1.15941
3102.41882,1.15918
3100.35742,1.15925
3098.29601,1.15962
3096.23460,1.16024
3094.17319,1.16076
3092.11178,1.16088
3090.05038,1.16087
3087.98897,1.16091
3085.92756,1.16079
3083.86615,1.16045
3081.80474,1.15999
3079.74334,1.15994
3077.68193,1.16041
3075.62052,1.16083
3073.55911,1.16103
3071.49771,1.16099
3069.43630,1.16085
3067.37489,1.16088
3065.31348,1.16063
3063.25207,1.16017
3061.19067,1.16017
3059.12926,1.16044
3057.06785,1.16057
3055.00644,1.16071
3052.94503,1.16099
3050.88363,1.16112
3048.82222,1.16107
3046.76081,1.16120
3044.69940,1.16149
3042.63800,1.16158
3040.57659,1.16154
3038.51518,1.16153
3036.45377,1.16144
3034.39236,1.16095
3032.33096,1.16044
3030.26955,1.16056
3028.20814,1.16094
3026.14673,1.16116
3024.08532,1.16128
3022.02392,1.16141
3019.96251,1.16150
3017.90110,1.16152
3015.83969,1.16177
3013.77829,1.16201
3011.71688,1.16146
3009.65547,1.16072
3007.59406,1.16082
3005.53265,1.16119
3003.47125,1.16110
3001.40984,1.16088
2999.34843,1.16084
2997.28702,1.16111
2995.22561,1.16164
2993.16421,1.16204
2991.10280,1.16199
2989.04139,1.16153
2986.97998,1.16114
2984.91858,1.16129
2982.85717,1.16198
2980.79576,1.16255
2978.73435,1.16245
2976.67294,1.16199
2974.61154,1.16210
2972.55013,1.16313
2970.48872,1.16405
2968.42731,1.16431
2966.36590,1.16438
2964.30450,1.16428
2962.24309,1.16412
2960.18168,1.16434
2958.12027,1.16470
2956.05887,1.16484
2953.99746,1.16477
2951.93605,1.16460
2949.87464,1.16428
2947.81323,1.16377
2945.75183,1.16351
2943.69042,1.16356
2941.62901,1.16337
2939.56760,1.16333
2937.50619,1.16368
2935.44479,1.16378
2933.38338,1.16399
2931.32197,1.16455
2929.26056,1.16485
2927.19916,1.16494
2925.13775,1.16492
2923.07634,1.16467
2921.01493,1.16458
2918.95352,1.16476
2916.89212,1.16486
2914.83071,1.16485
2912.76930,1.16461
2910.70789,1.16428
2908.64648,1.16415
2906.58508,1.16394
2904.52367,1.16347
2902.46226,1.16277
2900.40085,1.16211
2898.33945,1.16200
2896.27804,1.16216
2894.21663,1.16217
2892.15522,1.16229
2890.09381,1.16242
2888.03241,1.16223
2885.97100,1.16186
2883.90959,1.16177
2881.84818,1.16205
2879.78677,1.16220
2877.72537,1.16192
2875.66396,1.16145
2873.60255,1.16122
2871.54114,1.16117
2869.47974,1.16107
2867.41833,1.16113
2865.35692,1.16145
2863.29551,1.16180
2861.23410,1.16198
2859.17270,1.16211
2857.11129,1.16250
2855.04988,1.16272
2852.98847,1.16228
2850.92706,1.16206
2848.86566,1.16245
2846.80425,1.16256
2844.74284,1.16230
2842.68143,1.16223
2840.62003,1.16214
2838.55862,1.16179
2836.49721,1.16144
2834.43580,1.16145
2832.37439,1.16180
2830.31299,1.16213
2828.25158,1.16223
2826.19017,1.16215
2824.12876,1.16214
2822.06735,1.16230
2820.00595,1.16234
2817.94454,1.16253
2815.88313,1.16313
2813.82172,1.16363
2811.76032,1.16392
2809.69891,1.16409
2807.63750,1.16398
2805.57609,1.16376
2803.51468,1.16369
2801.45328,1.16386
2799.39187,1.16393
2797.33046,1.16375
2795.26905,1.16367
2793.20764,1.16371
2791.14624,1.16360
2789.08483,1.16303
2787.02342,1.16200
2784.96201,1.16135
2782.90061,1.16131
2780.83920,1.16112
2778.77779,1.16064
2776.71638,1.16023
2774.65497,1.16027
2772.59357,1.16053
2770.53216,1.16042
2768.47075,1.16005
2766.40934,1.16002
2764.34793,1.16044
2762.28653,1.16048
2760.22512,1.15992
2758.16371,1.15986
2756.10230,1.16040
2754.04090,1.16056
2751.97949,1.16040
2749.91808,1.16040
2747.85667,1.16040
2745.79526,1.16020
2743.73386,1.15979
2741.67245,1.15924
2739.61104,1.15881
2737.54963,1.15866
2735.48822,1.15863
2733.42682,1.15872
2731.36541,1.15891
2729.30400,1.15919
2727.24259,1.15930
2725.18119,1.15889
2723.11978,1.15840
2721.05837,1.15837
2718.99696,1.15860
2716.93555,1.15889
2714.87415,1.15909
2712.81274,1.15898
2710.75133,1.15887
2708.68992,1.15882
2706.62851,1.15873
2704.56711,1.15877
2702.50570,1.15882
2700.44429,1.15897
2698.38288,1.15929
2696.32148,1.15963
2694.26007,1.15982
2692.19866,1.15993
2690.13725,1.16027
2688.07584,1.16054
2686.01444,1.16040
2683.95303,1.16037
2681.89162,1.16066
2679.83021,1.16062
2677.76880,1.16041
2675.70740,1.16089
2673.64599,1.16190
2671.58458,1.16274
2669.52317,1.16323
2667.46177,1.16374
2665.40036,1.16438
2663.33895,1.16469
2661.27754,1.16463
2659.21613,1.16472
2657.15473,1.16474
2655.09332,1.16442
2653.03191,1.16412
2650.97050,1.16373
2648.90909,1.16335
2646.84769,1.16335
2644.78628,1.16321
2642.72487,1.16291
2640.66346,1.16299
2638.60206,1.16321
2636.54065,1.16347
2634.47924,1.16371
2632.41783,1.16355
2630.35642,1.16343
2628.29502,1.16384
2626.23361,1.16434
2624.17220,1.16436
2622.11079,1.16402
2620.04938,1.16381
2617.98798,1.16388
2615.92657,1.16423
2613.86516,1.16445
2611.80375,1.16434
2609.74235,1.16436
2607.68094,1.16458
2605.61953,1.16499
2603.55812,1.16543
2601.49671,1.16540
2599.43531,1.16518
2597.37390,1.16513
2595.31249,1.16482
2593.25108,1.16411
2591.18967,1.16364
2589.12827,1.16357
2587.06686,1.16338
2585.00545,1.16279
2582.94404,1.16192
2580.88264,1.16113
2578.82123,1.16069
2576.75982,1.16044
2574.69841,1.16031
2572.63700,1.16042
2570.57560,1.16059
2568.51419,1.16071
2566.45278,1.16074
2564.39137,1.16051
2562.32996,1.16004
2560.26856,1.15965
2558.20715,1.15954
2556.14574,1.15960
2554.08433,1.15979
2552.02293,1.16012
2549.96152,1.16032
2547.90011,1.15998
2545.83870,1.15948
2543.77729,1.15927
2541.71589,1.15898
2539.65448,1.15883
2537.59307,1.15898
2535.53166,1.15901
2533.47025,1.15885
2531.40885,1.15837
2529.34744,1.15758
2527.28603,1.15699
2525.22462,1.15675
2523.16322,1.15662
2521.10181,1.15656
2519.04040,1.15649
2516.97899,1.15644
2514.91758,1.15642
2512.85618,1.15637
2510.79477,1.15645
2508.73336,1.15661
2506.67195,1.15683
2504.61054,1.15701
2502.54914,1.15694
2500.48773,1.15700
2498.42632,1.15746
2496.36491,1.15794
2494.30351,1.15797
2492.24210,1.15760
2490.18069,1.15727
2488.11928,1.15709
2486.05787,1.15702
2483.99647,1.15713
2481.93506,1.15734
2479.87365,1.15776
2477.81224,1.15855
2475.75083,1.15919
2473.68943,1.15920
2471.62802,1.15888
2469.56661,1.15888
2467.50520,1.15949
2465.44380,1.16003
2463.38239,1.16003
2461.32098,1.15999
2459.25957,1.16045
2457.19816,1.16106
2455.13676,1.16124
2453.07535,1.16132
2451.01394,1.16165
2448.95253,1.16177
2446.89112,1.16155
2444.82972,1.16124
2442.76831,1.16095
2440.70690,1.16053
2438.64549,1.15989
2436.58409,1.15935
2434.52268,1.15910
2432.46127,1.15898
2430.39986,1.15880
2428.33845,1.15847
2426.27705,1.15821
2424.21564,1.15819
2422.15423,1.15852
2420.09282,1.15919
2418.03141,1.15968
2415.97001,1.15965
2413.90860,1.15954
2411.84719,1.15964
2409.78578,1.15965
2407.72438,1.15969
2405.66297,1.15999
2403.60156,1.16025
2401.54015,1.16037
2399.47874,1.16013
2397.41734,1.15975
2395.35593,1.15971
2393.29452,1.15968
2391.23311,1.15945
2389.17170,1.15907
2387.11030,1.15870
2385.04889,1.15843
2382.98748,1.15824
2380.92607,1.15824
2378.86467,1.15799
2376.80326,1.15685
2374.74185,1.15520
2372.68044,1.15365
2370.61903,1.15233
2368.55763,1.15170
2366.49622,1.15185
2364.43481,1.15174
2362.37340,1.15040
2360.31199,1.14831
2358.25059,1.14728
2356.18918,1.14782
2354.12777,1.14921
2352.06636,1.15123
2350.00496,1.15319
2347.94355,1.15421
2345.88214,1.15396
2343.82073,1.15292
2341.75932,1.15205
2339.69792,1.15147
2337.63651,1.15115
2335.57510,1.15147
2333.51369,1.15180
2331.45228,1.15162
2329.39088,1.15182
2327.32947,1.15240
2325.26806,1.15305
2323.20665,1.15393
2321.14525,1.15461
2319.08384,1.15508
2317.02243,1.15541
2314.96102,1.15551
2312.89961,1.15561
2310.83821,1.15598
2308.77680,1.15665
2306.71539,1.15726
2304.65398,1.15745
2302.59257,1.15744
2300.53117,1.15750
2298.46976,1.15761
2296.40835,1.15769
2294.34694,1.15766
2292.28554,1.15740
2290.22413,1.15693
2288.16272,1.15674
2286.10131,1.15693
2284.03990,1.15707
2281.97850,1.15712
2279.91709,1.15714
2277.85568,1.15690
2275.79427,1.15651
2273.73286,1.15655
2271.67146,1.15701
2269.61005,1.15726
2267.54864,1.15729
2265.48723,1.15759
2263.42583,1.15801
2261.36442,1.15804
2259.30301,1.15767
2257.24160,1.15741
2255.18019,1.15747
2253.11879,1.15746
2251.05738,1.15723
2248.99597,1.15704
2246.93456,1.15709
2244.87315,1.15702
2242.81175,1.15638
2240.75034,1.15580
2238.68893,1.15601
2236.62752,1.15655
2234.56612,1.15682
2232.50471,1.15655
2230.44330,1.15594
2228.38189,1.15552
2226.32048,1.15517
2224.25908,1.15499
2222.19767,1.15531
2220.13626,1.15557
2218.07485,1.15538
2216.01344,1.15513
2213.95204,1.15498
2211.89063,1.15495
2209.82922,1.15512
2207.76781,1.15532
2205.70641,1.15529
2203.64500,1.15507
2201.58359,1.15478
2199.52218,1.15450
2197.46077,1.15424
2195.39937,1.15409
2193.33796,1.15407
2191.27655,1.15396
2189.21514,1.15404
2187.15373,1.15421
2185.09233,1.15390
2183.03092,1.15347
2180.96951,1.15344
2178.90810,1.15358
2176.84670,1.15356
2174.78529,1.15342
2172.72388,1.15332
2170.66247,1.15302
2168.60106,1.15238
2166.53966,1.15191
2164.47825,1.15182
2162.41684,1.15189
2160.35543,1.15183
2158.29402,1.15169
2156.23262,1.15154
2154.17121,1.15122
2152.10980,1.15102
2150.04839,1.15119
2147.98699,1.15117
2145.92558,1.15092
2143.86417,1.15109
2141.80276,1.15163
2139.74135,1.15196
2137.67995,1.15194
2135.61854,1.15182
2133.55713,1.15143
2131.49572,1.15082
2129.43431,1.15064
2127.37291,1.15090
2125.31150,1.15116
2123.25009,1.15159
2121.18868,1.15218
2119.12728,1.15260
2117.06587,1.15291
2115.00446,1.15295
2112.94305,1.15262
2110.88164,1.15242
2108.82024,1.15259
2106.75883,1.15274
2104.69742,1.15262
2102.63601,1.15255
2100.57461,1.15282
2098.51320,1.15327
2096.45179,1.15349
2094.39038,1.15351
2092.32897,1.15356
2090.26757,1.15327
2088.20616,1.15284
2086.14475,1.15309
2084.08334,1.15378
2082.02193,1.15411
2079.96053,1.15410
2077.89912,1.15411
2075.83771,1.15427
2073.77630,1.15437
2071.71490,1.15437
2069.65349,1.15450
2067.59208,1.15453
2065.53067,1.15432
2063.46926,1.15426
2061.40786,1.15430
2059.34645,1.15410
2057.28504,1.15375
2055.22363,1.15358
2053.16222,1.15359
2051.10082,1.15349
2049.03941,1.15323
2046.97800,1.15312
2044.91659,1.15323
2042.85519,1.15325
2040.79378,1.15308
2038.73237,1.15282
2036.67096,1.15252
2034.60955,1.15255
2032.54815,1.15295
2030.48674,1.15315
2028.42533,1.15298
2026.36392,1.15273
2024.30251,1.15270
2022.24111,1.15303
2020.17970,1.15368
2018.11829,1.15412
2016.05688,1.15403
2013.99548,1.15399
2011.93407,1.15417
2009.87266,1.15413
2007.81125,1.15366
2005.74984,1.15297
2003.68844,1.15233
2001.62703,1.15179
1999.56562,1.15164
1997.50421,1.15159
1995.44280,1.15119
1993.38140,1.15058
1991.31999,1.14983
1989.25858,1.14938
1987.19717,1.14928
1985.13577,1.14892
1983.07436,1.14865
1981.01295,1.14875
1978.95154,1.14878
1976.89013,1.14863
1974.82873,1.14856
1972.76732,1.14843
1970.70591,1.14833
1968.64450,1.14857
1966.58309,1.14865
1964.52169,1.14839
1962.46028,1.14825
1960.39887,1.14800
1958.33746,1.14770
1956.27606,1.14764
1954.21465,1.14752
1952.15324,1.14735
1950.09183,1.14744
1948.03042,1.14783
1945.96902,1.14839
1943.90761,1.14871
1941.84620,1.14812
1939.78479,1.14727
1937.72338,1.14742
1935.66198,1.14805
1933.60057,1.14836
1931.53916,1.14845
1929.47775,1.14843
1927.41635,1.14879
1925.35494,1.14989
1923.29353,1.15055
1921.23212,1.15027
1919.17071,1.15036
1917.10931,1.15020
1915.04790,1.14928
1912.98649,1.14912
1910.92508,1.14966
1908.86367,1.14970
1906.80227,1.14932
1904.74086,1.14922
1902.67945,1.14920
1900.61804,1.14907
1898.55664,1.14914
1896.49523,1.14947
1894.43382,1.14981
1892.37241,1.15056
1890.31100,1.15146
1888.24960,1.15131
1886.18819,1.15110
1884.12678,1.15176
1882.06537,1.15245
1880.00396,1.15274
1877.94256,1.15287
1875.88115,1.15295
1873.81974,1.15331
1871.75833,1.15461
1869.69693,1.15598
1867.63552,1.15511
1865.57411,1.15307
1863.51270,1.15223
1861.45129,1.15215
1859.38989,1.15184
1857.32848,1.15139
1855.26707,1.15101
1853.20566,1.15052
1851.14425,1.15005
1849.08285,1.15003
1847.02144,1.15078
1844.96003,1.15158
1842.89862,1.15020
1840.83722,1.14890
1838.77581,1.14946
1836.71440,1.14991
1834.65299,1.14996
1832.59158,1.15100
1830.53018,1.15203
1828.46877,1.15095
1826.40736,1.14965
1824.34595,1.14902
1822.28454,1.14836
1820.22314,1.14829
1818.16173,1.14841
1816.10032,1.14806
1814.03891,1.14761
1811.97751,1.14742
1809.91610,1.14731
1807.85469,1.14733
1805.79328,1.14768
1803.73187,1.14846
1801.67047,1.14893
1799.60906,1.14825
1797.54765,1.14765
1795.48624,1.14823
1793.42483,1.14890
1791.36343,1.14780
1789.30202,1.14660
1787.24061,1.14730
1785.17920,1.14853
1783.11780,1.14909
1781.05639,1.14923
1778.99498,1.14893
1776.93357,1.14929
1774.87216,1.15104
1772.81076,1.15201
1770.74935,1.15047
1768.68794,1.14901
1766.62653,1.14852
1764.56512,1.14924
1762.50372,1.15059
1760.44231,1.15042
1758.38090,1.14972
1756.31949,1.14943
1754.25809,1.14999
1752.19668,1.15164
1750.13527,1.15199
1748.07386,1.15078
1746.01245,1.15056
1743.95105,1.15134
1741.88964,1.15241
1739.82823,1.15282
1737.76682,1.15319
1735.70541,1.15472
1733.64401,1.15407
1731.58260,1.15116
1729.52119,1.15054
1727.45978,1.15109
1725.39838,1.15185
1723.33697,1.15249
1721.27556,1.15331
1719.21415,1.15419
1717.15274,1.15271
1715.09134,1.15017
1713.02993,1.14993
1710.96852,1.15090
1708.90711,1.15204
1706.84570,1.15278
1704.78430,1.15292
1702.72289,1.15352
1700.66148,1.15330
1698.60007,1.15104
1696.53867,1.15017
1694.47726,1.15028
1692.41585,1.15136
1690.35444,1.15295
1688.29303,1.15394
1686.23163,1.15464
1684.17022,1.15302
1682.10881,1.15081
1680.04740,1.15177
1677.98599,1.15334
1675.92459,1.15409
1673.86318,1.15444
1671.80177,1.15506
1669.74036,1.15507
1667.67896,1.15524
1665.61755,1.15654
1663.55614,1.15692
1661.49473,1.15605
1659.43332,1.15643
1657.37192,1.15790
1655.31051,1.15896
1653.24910,1.15647
1651.18769,1.15373
1649.12628,1.15525
1647.06488,1.15593
1645.00347,1.15506
1642.94206,1.15644
1640.88065,1.15842
1638.81925,1.15941
1636.75784,1.15854
1634.69643,1.15616
1632.63502,1.15662
1630.57361,1.15859
1628.51221,1.15939
1626.45080,1.15891
1624.38939,1.15820
1622.32798,1.15815
1620.26657,1.15938
1618.20517,1.16024
1616.14376,1.15924
1614.08235,1.15906
1612.02094,1.16048
1609.95954,1.16158
1607.89813,1.16198
1605.83672,1.16253
1603.77531,1.16325
1601.71390,1.16348
1599.65250,1.16345
1597.59109,1.16375
1595.52968,1.16447
1593.46827,1.16526
1591.40686,1.16541
1589.34546,1.16530
1587.28405,1.16579
1585.22264,1.16657
1583.16123,1.16687
1581.09983,1.16694
1579.03842,1.16749
1576.97701,1.16784
1574.91560,1.16800
1572.85419,1.16923
1570.79279,1.17002
1568.73138,1.17016
1566.66997,1.17141
1564.60856,1.17314
1562.54715,1.17487
1560.48575,1.17518
1558.42434,1.17168
1556.36293,1.17235
1554.30152,1.17618
1552.24012,1.17884
1550.17871,1.17918
1548.11730,1.17759
1546.05589,1.17573
1543.99448,1.17316
1541.93308,1.16868
1539.87167,1.16346
1537.81026,1.16307
1535.74885,1.16423
1533.68744,1.16327
1531.62604,1.16319
1529.56463,1.16569
1527.50322,1.16779
1525.44181,1.16877
1523.38041,1.16851
1521.31900,1.16620
1519.25759,1.16531
1517.19618,1.16668
1515.13477,1.16811
1513.07337,1.16944
1511.01196,1.17070
1508.95055,1.17081
1506.88914,1.16769
1504.82773,1.16761
1502.76633,1.17198
1500.70492,1.17536
1498.64351,1.17605
1496.58210,1.17568
1494.52070,1.17682
1492.45929,1.17842
1490.39788,1.17750
1488.33647,1.17361
1486.27506,1.17096
1484.21366,1.17070
1482.15225,1.17126
1480.09084,1.17132
1478.02943,1.17080
1475.96802,1.16938
1473.90662,1.16689
1471.84521,1.16549
1469.78380,1.16732
1467.72239,1.16987
1465.66099,1.17064
1463.59958,1.17049
1461.53817,1.17142
1459.47676,1.17174
1457.41535,1.16983
1455.35395,1.16990
1453.29254,1.17286
1451.23113,1.17519
1449.16972,1.17608
1447.10831,1.17618
1445.04691,1.17644
1442.98550,1.17706
1440.92409,1.17764
1438.86268,1.17755
1436.80128,1.17605
1434.73987,1.17499
1432.67846,1.17589
1430.61705,1.17730
1428.55564,1.17851
1426.49424,1.17972
1424.43283,1.18082
1422.37142,1.18179
1420.31001,1.18221
1418.24860,1.18137
1416.18720,1.18177
1414.12579,1.18386
1412.06438,1.18535
1410.00297,1.18586
1407.94157,1.18657
1405.88016,1.18779
1403.81875,1.18929
1401.75734,1.19120
1399.69593,1.19320
1397.63453,1.19532
1395.57312,1.19781
1393.51171,1.19955
1391.45030,1.20031
1389.38889,1.20117
1387.32749,1.20290
1385.26608,1.20605
1383.20467,1.21061
1381.14326,1.21567
1379.08186,1.22017
1377.02045,1.22350
1374.95904,1.22502
1372.89763,1.22464
1370.83622,1.22211
1368.77482,1.21553
1366.71341,1.20569
1364.65200,1.19556
1362.59059,1.18373
1360.52918,1.17062
1358.46778,1.16128
1356.40637,1.15851
1354.34496,1.16176
1352.28355,1.16747
1350.22215,1.17284
1348.16074,1.17790
1346.09933,1.18350
1344.03792,1.18957
1341.97651,1.19526
1339.91511,1.19993
1337.85370,1.20359
1335.79229,1.20692
1333.73088,1.21045
1331.66947,1.21441
1329.60807,1.21883
1327.54666,1.22290
1325.48525,1.22433
1323.42384,1.22056
1321.36244,1.21035
1319.30103,1.19497
1317.23962,1.17905
1315.17821,1.16776
1313.11680,1.16316
1311.05540,1.16445
1308.99399,1.16768
1306.93258,1.16886
1304.87117,1.16923
1302.80976,1.17253
1300.74836,1.17986
1298.68695,1.19053
1296.62554,1.20337
1294.56413,1.21684
1292.50273,1.22947
1290.44132,1.23832
1288.37991,1.23869
1286.31850,1.22697
1284.25709,1.20390
1282.19569,1.17596
1280.13428,1.15144
1278.07287,1.13515
1276.01146,1.12819
1273.95005,1.12904
1271.88865,1.13334
1269.82724,1.13490
1267.76583,1.12825
1265.70442,1.11287
1263.64302,1.09576
1261.58161,1.08542
1259.52020,1.08398
1257.45879,1.08826
1255.39738,1.09439
1253.33598,1.10039
1251.27457,1.10628
1249.21316,1.11219
1247.15175,1.11773
1245.09034,1.12234
1243.02894,1.12622
1240.96753,1.13016
1238.90612,1.13422
1236.84471,1.13831
1234.78331,1.14262
1232.72190,1.14674
1230.66049,1.15024
1228.59908,1.15354
1226.53767,1.15724
1224.47627,1.16146
1222.41486,1.16559
1220.35345,1.16893
1218.29204,1.17170
1216.23063,1.17384
1214.16923,1.17502
1212.10782,1.17560
1210.04641,1.17646
1207.98500,1.17880
1205.92360,1.18310
1203.86219,1.18893
1201.80078,1.19552
1199.73937,1.20207
1197.67796,1.20833
1195.61656,1.21426
1193.55515,1.21934
1191.49374,1.22303
1189.43233,1.22492
1187.37092,1.22402
1185.30952,1.21890
1183.24811,1.20872
1181.18670,1.19369
1179.12529,1.17450
1177.06389,1.15321
1175.00248,1.13413
1172.94107,1.12221
1170.87966,1.12003
1168.81825,1.12588
1166.75685,1.13551
1164.69544,1.14569
1162.63403,1.15478
1160.57262,1.16197
1158.51121,1.16887
1156.44981,1.17695
1154.38840,1.18475
1152.32699,1.19142
1150.26558,1.19885
1148.20418,1.20829
1146.14277,1.21853
1144.08136,1.22735
1142.01995,1.23079
1139.95854,1.22267
1137.89714,1.19966
1135.83573,1.16507
1133.77432,1.12604
1131.71291,1.08962
1129.65150,1.06036
1127.59010,1.03915
1125.52869,1.02516
1123.46728,1.01780
1121.40587,1.01658
1119.34447,1.02052
1117.28306,1.02781
1115.22165,1.03650
1113.16024,1.04555
1111.09883,1.05443
1109.03743,1.06266
1106.97602,1.06978
1104.91461,1.07569
1102.85320,1.08131
1100.79179,1.08708
1098.73039,1.09169
1096.66898,1.09426
1094.60757,1.09589
1092.54616,1.09809
1090.48476,1.10014
1088.42335,1.09942
1086.36194,1.09536
1084.30053,1.09089
1082.23912,1.08882
1080.17772,1.08946
1078.11631,1.09186
1076.05490,1.09461
1073.99349,1.09641
1071.93208,1.09763
1069.87068,1.09889
1067.80927,1.10000
1065.74786,1.10080
1063.68645,1.10158
1061.62505,1.10259
1059.56364,1.10325
1057.50223,1.10339
1055.44082,1.10378
1053.37941,1.10472
1051.31801,1.10576
1049.25660,1.10662
1047.19519,1.10771
1045.13378,1.10925
1043.07238,1.11064
1041.01097,1.11177
1038.94956,1.11312
1036.88815,1.11417
1034.82674,1.11450
1032.76534,1.11471
1030.70393,1.11527
1028.64252,1.11606
1026.58111,1.11685
1024.51970,1.11756
1022.45830,1.11806
1020.39689,1.11799
1018.33548,1.11755
1016.27407,1.11731
1014.21267,1.11740
1012.15126,1.11800
1010.08985,1.11883
1008.02844,1.11934
1005.96703,1.11992
1003.90563,1.12090
1001.84422,1.12165
999.78281,1.12170
997.72140,1.12165
995.65999,1.12194
993.59859,1.12230
991.53718,1.12284
989.47577,1.12362
987.41436,1.12486
985.35296,1.12657
983.29155,1.12771
981.23014,1.12819
979.16873,1.12906
977.10732,1.13052
975.04592,1.13210
972.98451,1.13386
970.92310,1.13617
968.86169,1.13874
966.80028,1.14076
964.73888,1.14206
962.67747,1.14335
960.61606,1.14497
958.55465,1.14658
956.49325,1.14821
954.43184,1.15001
952.37043,1.15171
950.30902,1.15281
948.24761,1.15336
946.18621,1.15442
944.12480,1.15691
942.06339,1.15997
940.00198,1.16222
937.94057,1.16321
935.87917,1.16314
933.81776,1.16181
931.75635,1.15833
929.69494,1.15316
927.63354,1.14821
925.57213,1.14299
923.51072,1.13544
921.44931,1.12685
919.38790,1.12000
917.32650,1.11510
915.26509,1.11149
913.20368,1.10896
911.14227,1.10760
909.08086,1.10747
907.01946,1.10786
904.95805,1.10875
902.89664,1.11054
900.83523,1.11247
898.77383,1.11376
896.71242,1.11492
894.65101,1.11661
892.58960,1.11853
890.52819,1.12033
888.46679,1.12197
886.40538,1.12306
884.34397,1.12365
882.28256,1.12423
880.22115,1.12514
878.15975,1.12678
876.09834,1.12878
874.03693,1.13010
871.97552,1.13035
869.91412,1.12961
867.85271,1.12803
865.79130,1.12616
863.72989,1.12508
861.66848,1.12536
859.60708,1.12582
857.54567,1.12512
855.48426,1.12418
853.42285,1.12373
851.36144,1.12339
849.30004,1.12407
847.23863,1.12570
845.17722,1.12647
843.11581,1.12665
841.05441,1.12743
838.99300,1.12830
836.93159,1.12870
834.87018,1.12881
832.80877,1.12872
830.74737,1.12859
828.68596,1.12907
826.62455,1.13073
824.56314,1.13305
822.50173,1.13541
820.44033,1.13756
818.37892,1.13959
816.31751,1.14269
814.25610,1.14796
812.19470,1.15504
810.13329,1.16240
808.07188,1.16799
806.01047,1.17046
803.94906,1.16948
801.88766,1.16394
799.82625,1.15404
797.76484,1.14475
795.70343,1.14117
793.64202,1.14282
791.58062,1.14641
789.51921,1.14942
787.45780,1.15151
785.39639,1.15382
783.33499,1.15608
781.27358,1.15713
779.21217,1.15725
777.15076,1.15837
775.08935,1.16167
773.02795,1.16610
770.96654,1.17006
768.90513,1.17038
766.84372,1.16258
764.78231,1.15093
762.72091,1.14661
760.65950,1.15136
758.59809,1.15887
756.53668,1.16634
754.47528,1.17490
752.41387,1.18356
750.35246,1.18450
748.29105,1.16822
746.22964,1.14059
744.16824,1.12087
742.10683,1.11582
740.04542,1.11668
737.98401,1.11752
735.92260,1.11757
733.86120,1.11611
731.79979,1.11443
729.73838,1.11377
727.67697,1.11407
725.61557,1.11583
723.55416,1.11926
721.49275,1.12356
719.43134,1.12735
717.36993,1.13056
715.30853,1.13339
713.24712,1.13416
711.18571,1.13248
709.12430,1.13044
707.06289,1.12837
705.00149,1.12542
702.94008,1.12320
700.87867,1.12204
698.81726,1.11955
696.75586,1.11642
694.69445,1.11559
692.63304,1.11674
690.57163,1.11821
688.51022,1.12010
686.44882,1.12172
684.38741,1.12282
682.32600,1.12442
680.26459,1.12534
678.20318,1.12465
676.14178,1.12420
674.08037,1.12500
672.01896,1.12615
669.95755,1.12560
667.89615,1.12331
665.83474,1.12455
663.77333,1.12720
661.71192,1.12867
659.65051,1.13024
657.58911,1.13177
655.52770,1.13207
653.46629,1.13214
651.40488,1.13326
649.34347,1.13429
647.28207,1.13404
645.22066,1.13365
643.15925,1.13493
641.09784,1.13670
639.03644,1.13655
636.97503,1.13570
634.91362,1.13505
632.85221,1.13477
630.79080,1.13533
628.72940,1.13532
626.66799,1.13477
624.60658,1.13578
622.54517,1.13882
620.48376,1.14094
618.42236,1.14072
616.36095,1.14140
614.29954,1.14389
612.23813,1.14521
610.17673,1.14448
608.11532,1.14330
606.05391,1.14238
603.99250,1.14138
601.93109,1.14122
599.86969,1.14196
597.80828,1.14216
595.74687,1.14175
593.68546,1.14145
591.62405,1.14234
589.56265,1.14492
587.50124,1.14762
585.43983,1.14951
583.37842,1.15113
581.31702,1.15184
579.25561,1.15094
577.19420,1.14928
575.13279,1.14803
573.07138,1.14848
571.00998,1.14915
568.94857,1.14711
566.88716,1.14449
564.82575,1.14456
562.76434,1.14615
560.70294,1.14646
558.64153,1.14608
556.58012,1.14724
554.51871,1.14855
552.45731,1.14818
550.39590,1.14638
548.33449,1.14474
546.27308,1.14421
544.21167,1.14409
542.15027,1.14387
540.08886,1.14320
538.02745,1.14423
535.96604,1.14661
533.90463,1.14518
531.84323,1.14115
529.78182,1.13989
527.72041,1.13911
525.65900,1.13467
523.59760,1.13023
521.53619,1.12881
519.47478,1.12955
517.41337,1.13251
515.35196,1.13716
513.29056,1.14105
511.22915,1.14165
509.16774,1.13852
507.10633,1.13320
505.04492,1.12914
502.98352,1.12896
500.92211,1.13078
498.86070,1.13347
496.79929,1.13804
494.73789,1.14319
492.67648,1.14857
490.61507,1.15406
488.55366,1.15702
486.49225,1.15655
484.43085,1.15399
482.36944,1.15072
480.30803,1.14681
478.24662,1.14389
476.18521,1.14265
474.12381,1.14202
472.06240,1.14388
470.00099,1.14854
467.93958,1.15294
465.87818,1.15638
463.81677,1.15854
461.75536,1.15789
459.69395,1.15503
457.63254,1.14958
455.57114,1.14233
453.50973,1.13635
451.44832,1.13262
449.38691,1.13376
447.32550,1.13665
445.26410,1.13382
443.20269,1.12498
441.14128,1.11626
439.07987,1.11216
437.01847,1.11012
434.95706,1.10545
432.89565,1.09807
430.83424,1.09080
428.77283,1.08684
426.71143,1.08626
424.65002,1.08545
422.58861,1.08142
420.52720,1.07603
418.46579,1.07575
416.40439,1.07508
414.34298,1.07056
412.28157,1.06790
410.22016,1.06423
408.15876,1.05904
406.09735,1.05911
404.03594,1.06456
401.97453,1.07015
399.91312,1.07519
