3997.06983,1.72806
3995.00842,1.72816
3992.94702,1.72675
3990.88561,1.72472
3988.82420,1.72323
3986.76279,1.72332
3984.70139,1.72371
3982.63998,1.72445
3980.57857,1.72548
3978.51716,1.72367
3976.45575,1.72003
3974.39435,1.71782
3972.33294,1.71639
3970.27153,1.71496
3968.21012,1.71428
3966.14871,1.71359
3964.08731,1.71200
3962.02590,1.71121
3959.96449,1.71227
3957.90308,1.71313
3955.84168,1.71334
3953.78027,1.71495
3951.71886,1.71757
3949.65745,1.71835
3947.59604,1.71619
3945.53464,1.71362
3943.47323,1.71257
3941.41182,1.71338
3939.35041,1.71525
3937.28900,1.71726
3935.22760,1.72003
3933.16619,1.72105
3931.10478,1.71922
3929.04337,1.71921
3926.98197,1.72154
3924.92056,1.72295
3922.85915,1.72268
3920.79774,1.72263
3918.73633,1.72383
3916.67493,1.72675
3914.61352,1.72952
3912.55211,1.72988
3910.49070,1.73012
3908.42929,1.73352
3906.36789,1.73820
3904.30648,1.73989
3902.24507,1.73836
3900.18366,1.73707
3898.12226,1.73770
3896.06085,1.73940
3893.99944,1.74090
3891.93803,1.74138
3889.87662,1.74224
3887.81522,1.74395
3885.75381,1.74259
3883.69240,1.73817
3881.63099,1.73644
3879.56958,1.73907
3877.50818,1.74361
3875.44677,1.74530
3873.38536,1.74328
3871.32395,1.74241
3869.26255,1.74132
3867.20114,1.73835
3865.13973,1.73708
3863.07832,1.73796
3861.01691,1.74000
3858.95551,1.74244
3856.89410,1.74389
3854.83269,1.74111
3852.77128,1.73465
3850.70987,1.73599
3848.64847,1.74286
3846.58706,1.74881
3844.52565,1.75126
3842.46424,1.75120
3840.40284,1.74917
3838.34143,1.74488
3836.28002,1.74281
3834.21861,1.74521
3832.15720,1.74929
3830.09580,1.75162
3828.03439,1.75189
3825.97298,1.75280
3823.91157,1.75303
3821.85016,1.74920
3819.78876,1.74509
3817.72735,1.74497
3815.66594,1.74792
3813.60453,1.75521
3811.54313,1.76248
3809.48172,1.76469
3807.42031,1.76131
3805.35890,1.75784
3803.29749,1.75744
3801.23609,1.75703
3799.17468,1.75827
3797.11327,1.76155
3795.05186,1.76477
3792.99045,1.76816
3790.92905,1.77110
3788.86764,1.77278
3786.80623,1.77205
3784.74482,1.77000
3782.68342,1.77175
3780.62201,1.77586
3778.56060,1.77831
3776.49919,1.78210
3774.43778,1.78578
3772.37638,1.78578
3770.31497,1.78552
3768.25356,1.78926
3766.19215,1.79505
3764.13074,1.80037
3762.06934,1.80540
3760.00793,1.80885
3757.94652,1.81046
3755.88511,1.81233
3753.82371,1.81278
3751.76230,1.80905
3749.70089,1.80718
3747.63948,1.81444
3745.57807,1.82283
3743.51667,1.82560
3741.45526,1.82788
3739.39385,1.83139
3737.33244,1.83268
3735.27103,1.83242
3733.20963,1.83501
3731.14822,1.84025
3729.08681,1.84643
3727.02540,1.85174
3724.96400,1.85320
3722.90259,1.85387
3720.84118,1.85748
3718.77977,1.86160
3716.71836,1.86662
3714.65696,1.87158
3712.59555,1.87097
3710.53414,1.86833
3708.47273,1.87555
3706.41132,1.88712
3704.34992,1.89379
3702.28851,1.89730
3700.22710,1.90220
3698.16569,1.90743
3696.10429,1.91337
3694.04288,1.91830
3691.98147,1.91884
3689.92006,1.91933
3687.85865,1.92627
3685.79725,1.93484
3683.73584,1.94284
3681.67443,1.95051
3679.61302,1.95474
3677.55161,1.95657
3675.49021,1.95699
3673.42880,1.95578
3671.36739,1.96156
3669.30598,1.97300
3667.24458,1.97807
3665.18317,1.98040
3663.12176,1.98509
3661.06035,1.98969
3658.99894,1.99276
3656.93754,1.99654
3654.87613,2.00041
3652.81472,2.00225
3650.75331,2.00401
3648.69190,2.00719
3646.63050,2.01162
3644.56909,2.01669
3642.50768,2.02128
3640.44627,2.02529
3638.38487,2.03027
3636.32346,2.03564
3634.26205,2.04133
3632.20064,2.04852
3630.13923,2.05581
3628.07783,2.05919
3626.01642,2.05549
3623.95501,2.05046
3621.89360,2.04915
3619.83219,2.05284
3617.77079,2.06299
3615.70938,2.07464
3613.64797,2.07973
3611.58656,2.07949
3609.52516,2.07892
3607.46375,2.08050
3605.40234,2.08421
3603.34093,2.08691
3601.27952,2.08947
3599.21812,2.09303
3597.15671,2.09543
3595.09530,2.09731
3593.03389,2.10134
3590.97248,2.10656
3588.91108,2.10887
3586.84967,2.10393
3584.78826,2.09874
3582.72685,2.10046
3580.66545,2.10360
3578.60404,2.10096
3576.54263,2.09650
3574.48122,2.09496
3572.41981,2.08978
3570.35841,2.08275
3568.29700,2.08090
3566.23559,2.07750
3564.17418,2.07020
3562.11277,2.06511
3560.05137,2.05786
3557.98996,2.04901
3555.92855,2.04344
3553.86714,2.03741
3551.80574,2.02881
3549.74433,2.02082
3547.68292,2.01468
3545.62151,2.00931
3543.56010,2.00371
3541.49870,2.00171
3539.43729,2.00494
3537.37588,2.00685
3535.31447,2.00536
3533.25306,2.00466
3531.19166,2.00490
3529.13025,2.00546
3527.06884,2.00660
3525.00743,2.00914
3522.94603,2.01318
3520.88462,2.01736
3518.82321,2.02160
3516.76180,2.02760
3514.70039,2.03644
3512.63899,2.04289
3510.57758,2.04416
3508.51617,2.04580
3506.45476,2.04918
3504.39335,2.05022
3502.33195,2.04852
3500.27054,2.05084
3498.20913,2.05648
3496.14772,2.05431
3494.08632,2.04362
3492.02491,2.03360
3489.96350,2.02901
3487.90209,2.02787
3485.84068,2.02522
3483.77928,2.02375
3481.71787,2.02591
3479.65646,2.02654
3477.59505,2.02738
3475.53364,2.03274
3473.47224,2.03863
3471.41083,2.04146
3469.34942,2.04128
3467.28801,2.04027
3465.22661,2.04345
3463.16520,2.04802
3461.10379,2.04787
3459.04238,2.04533
3456.98097,2.04502
3454.91957,2.04431
3452.85816,2.03678
3450.79675,2.02788
3448.73534,2.02312
3446.67393,2.01477
3444.61253,1.99895
3442.55112,1.97900
3440.48971,1.95461
3438.42830,1.92540
3436.36690,1.89446
3434.30549,1.86458
3432.24408,1.83523
3430.18267,1.80390
3428.12126,1.76915
3426.05986,1.73399
3423.99845,1.70406
3421.93704,1.67788
3419.87563,1.65062
3417.81422,1.62443
3415.75282,1.60247
3413.69141,1.58541
3411.63000,1.57324
3409.56859,1.56410
3407.50719,1.55723
3405.44578,1.55428
3403.38437,1.55441
3401.32296,1.55541
3399.26155,1.55839
3397.20015,1.56460
3395.13874,1.57288
3393.07733,1.58125
3391.01592,1.58805
3388.95451,1.59529
3386.89311,1.60548
3384.83170,1.61597
3382.77029,1.62465
3380.70888,1.63309
3378.64748,1.64227
3376.58607,1.65152
3374.52466,1.66141
3372.46325,1.67219
3370.40184,1.68062
3368.34044,1.68555
3366.27903,1.69104
3364.21762,1.69928
3362.15621,1.70770
3360.09480,1.71406
3358.03340,1.71818
3355.97199,1.72086
3353.91058,1.72387
3351.84917,1.72842
3349.78777,1.73321
3347.72636,1.73686
3345.66495,1.73917
3343.60354,1.74114
3341.54213,1.74400
3339.48073,1.74625
3337.41932,1.74691
3335.35791,1.74630
3333.29650,1.74514
3331.23509,1.74466
3329.17369,1.74595
3327.11228,1.74946
3325.05087,1.75291
3322.98946,1.75414
3320.92806,1.75548
3318.86665,1.75845
3316.80524,1.76022
3314.74383,1.76105
3312.68242,1.76249
3310.62102,1.76389
3308.55961,1.76551
3306.49820,1.76717
3304.43679,1.76826
3302.37538,1.76883
3300.31398,1.77011
3298.25257,1.77345
3296.19116,1.77682
3294.12975,1.77735
3292.06835,1.77669
3290.00694,1.77825
3287.94553,1.78078
3285.88412,1.78118
3283.82271,1.78114
3281.76131,1.78222
3279.69990,1.78276
3277.63849,1.78275
3275.57708,1.78361
3273.51567,1.78642
3271.45427,1.78995
3269.39286,1.79198
3267.33145,1.79262
3265.27004,1.79307
3263.20864,1.79407
3261.14723,1.79544
3259.08582,1.79753
3257.02441,1.80045
3254.96300,1.80125
3252.90160,1.79898
3250.84019,1.79674
3248.77878,1.79546
3246.71737,1.79386
3244.65596,1.79061
3242.59456,1.78687
3240.53315,1.78565
3238.47174,1.78561
3236.41033,1.78425
3234.34893,1.78327
3232.28752,1.78387
3230.22611,1.78472
3228.16470,1.78442
3226.10329,1.78269
3224.04189,1.78119
3221.98048,1.78250
3219.91907,1.78681
3217.85766,1.79036
3215.79625,1.79084
3213.73485,1.78911
3211.67344,1.78659
3209.61203,1.78552
3207.55062,1.78607
3205.48922,1.78730
3203.42781,1.78903
3201.36640,1.79101
3199.30499,1.79296
3197.24358,1.79381
3195.18218,1.79324
3193.12077,1.79229
3191.05936,1.79200
3188.99795,1.79273
3186.93654,1.79293
3184.87514,1.79186
3182.81373,1.79106
3180.75232,1.79063
3178.69091,1.79016
3176.62951,1.79055
3174.56810,1.79005
3172.50669,1.78809
3170.44528,1.78825
3168.38387,1.79007
3166.32247,1.79056
3164.26106,1.78939
3162.19965,1.78705
3160.13824,1.78586
3158.07683,1.78797
3156.01543,1.79137
3153.95402,1.79205
3151.89261,1.78917
3149.83120,1.78639
3147.76980,1.78556
3145.70839,1.78525
3143.64698,1.78550
3141.58557,1.78609
3139.52416,1.78608
3137.46276,1.78576
3135.40135,1.78575
3133.33994,1.78613
3131.27853,1.78500
3129.21713,1.78220
3127.15572,1.78000
3125.09431,1.77842
3123.03290,1.77786
3120.97149,1.77833
3118.91009,1.77804
3116.84868,1.77719
3114.78727,1.77690
3112.72586,1.77657
3110.66445,1.77524
3108.60305,1.77442
3106.54164,1.77420
3104.48023,1.77226
3102.41882,1.77007
3100.35742,1.76949
3098.29601,1.76867
3096.23460,1.76682
3094.17319,1.76557
3092.11178,1.76597
3090.05038,1.76784
3087.98897,1.76853
3085.92756,1.76652
3083.86615,1.76499
3081.80474,1.76539
3079.74334,1.76595
3077.68193,1.76512
3075.62052,1.76266
3073.55911,1.76046
3071.49771,1.75989
3069.43630,1.76028
3067.37489,1.76033
3065.31348,1.75913
3063.25207,1.75670
3061.19067,1.75505
3059.12926,1.75568
3057.06785,1.75658
3055.00644,1.75641
3052.94503,1.75479
3050.88363,1.75141
3048.82222,1.74861
3046.76081,1.74662
3044.69940,1.74443
3042.63800,1.74387
3040.57659,1.74390
3038.51518,1.74170
3036.45377,1.73915
3034.39236,1.73820
3032.33096,1.73719
3030.26955,1.73474
3028.20814,1.73207
3026.14673,1.73103
3024.08532,1.72993
3022.02392,1.72716
3019.96251,1.72405
3017.90110,1.72062
3015.83969,1.71794
3013.77829,1.71784
3011.71688,1.71850
3009.65547,1.71716
3007.59406,1.71475
3005.53265,1.71358
3003.47125,1.71323
3001.40984,1.71225
2999.34843,1.71083
2997.28702,1.70962
2995.22561,1.70831
2993.16421,1.70699
2991.10280,1.70655
2989.04139,1.70629
2986.97998,1.70442
2984.91858,1.70242
2982.85717,1.70125
2980.79576,1.69924
2978.73435,1.69675
2976.67294,1.69484
2974.61154,1.69372
2972.55013,1.69309
2970.48872,1.69225
2968.42731,1.69008
2966.36590,1.68669
2964.30450,1.68466
2962.24309,1.68442
2960.18168,1.68370
2958.12027,1.68205
2956.05887,1.67987
2953.99746,1.67702
2951.93605,1.67439
2949.87464,1.67303
2947.81323,1.67239
2945.75183,1.67170
2943.69042,1.67107
2941.62901,1.66970
2939.56760,1.66758
2937.50619,1.66581
2935.44479,1.66459
2933.38338,1.66379
2931.32197,1.66288
2929.26056,1.66139
2927.19916,1.66011
2925.13775,1.65956
2923.07634,1.65844
2921.01493,1.65619
2918.95352,1.65393
2916.89212,1.65287
2914.83071,1.65341
2912.76930,1.65447
2910.70789,1.65447
2908.64648,1.65337
2906.58508,1.65210
2904.52367,1.65030
2902.46226,1.64799
2900.40085,1.64655
2898.33945,1.64637
2896.27804,1.64581
2894.21663,1.64405
2892.15522,1.64273
2890.09381,1.64248
2888.03241,1.64154
2885.97100,1.64012
2883.90959,1.64102
2881.84818,1.64312
2879.78677,1.64253
2877.72537,1.64008
2875.66396,1.63887
2873.60255,1.63847
2871.54114,1.63736
2869.47974,1.63546
2867.41833,1.63365
2865.35692,1.63291
2863.29551,1.63274
2861.23410,1.63211
2859.17270,1.63126
2857.11129,1.63009
2855.04988,1.62773
2852.98847,1.62507
2850.92706,1.62348
2848.86566,1.62269
2846.80425,1.62179
2844.74284,1.62043
2842.68143,1.61909
2840.62003,1.61793
2838.55862,1.61685
2836.49721,1.61584
2834.43580,1.61467
2832.37439,1.61352
2830.31299,1.61236
2828.25158,1.61027
2826.19017,1.60799
2824.12876,1.60713
2822.06735,1.60674
2820.00595,1.60546
2817.94454,1.60450
2815.88313,1.60444
2813.82172,1.60419
2811.76032,1.60386
2809.69891,1.60319
2807.63750,1.60135
2805.57609,1.59964
2803.51468,1.59924
2801.45328,1.59873
2799.39187,1.59777
2797.33046,1.59714
2795.26905,1.59548
2793.20764,1.59329
2791.14624,1.59239
2789.08483,1.59185
2787.02342,1.59085
2784.96201,1.58970
2782.90061,1.58805
2780.83920,1.58643
2778.77779,1.58600
2776.71638,1.58618
2774.65497,1.58535
2772.59357,1.58332
2770.53216,1.58108
2768.47075,1.57944
2766.40934,1.57846
2764.34793,1.57801
2762.28653,1.57714
2760.22512,1.57444
2758.16371,1.57166
2756.10230,1.57036
2754.04090,1.56938
2751.97949,1.56863
2749.91808,1.56808
2747.85667,1.56714
2745.79526,1.56605
2743.73386,1.56478
2741.67245,1.56291
2739.61104,1.56119
2737.54963,1.56073
2735.48822,1.56080
2733.42682,1.56025
2731.36541,1.55987
2729.30400,1.55963
2727.24259,1.55832
2725.18119,1.55649
2723.11978,1.55528
2721.05837,1.55519
2718.99696,1.55558
2716.93555,1.55505
2714.87415,1.55380
2712.81274,1.55252
2710.75133,1.55167
2708.68992,1.55138
2706.62851,1.55059
2704.56711,1.54939
2702.50570,1.54901
2700.44429,1.54955
2698.38288,1.55008
2696.32148,1.55060
2694.26007,1.55155
2692.19866,1.55203
2690.13725,1.55170
2688.07584,1.55129
2686.01444,1.55156
2683.95303,1.55213
2681.89162,1.55208
2679.83021,1.55174
2677.76880,1.55176
2675.70740,1.55237
2673.64599,1.55263
2671.58458,1.55175
2669.52317,1.55060
2667.46177,1.55074
2665.40036,1.55198
2663.33895,1.55174
2661.27754,1.55039
2659.21613,1.55027
2657.15473,1.55118
2655.09332,1.55236
2653.03191,1.55390
2650.97050,1.55515
2648.90909,1.55543
2646.84769,1.55554
2644.78628,1.55607
2642.72487,1.55690
2640.66346,1.55756
2638.60206,1.55766
2636.54065,1.55808
2634.47924,1.55899
2632.41783,1.56013
2630.35642,1.56137
2628.29502,1.56169
2626.23361,1.56166
2624.17220,1.56245
2622.11079,1.56386
2620.04938,1.56539
2617.98798,1.56647
2615.92657,1.56700
2613.86516,1.56779
2611.80375,1.56931
2609.74235,1.57130
2607.68094,1.57306
2605.61953,1.57416
2603.55812,1.57528
2601.49671,1.57633
2599.43531,1.57709
2597.37390,1.57865
2595.31249,1.58102
2593.25108,1.58329
2591.18967,1.58595
2589.12827,1.58938
2587.06686,1.59259
2585.00545,1.59536
2582.94404,1.59797
2580.88264,1.59960
2578.82123,1.59932
2576.75982,1.59816
2574.69841,1.59731
2572.63700,1.59679
2570.57560,1.59627
2568.51419,1.59557
2566.45278,1.59557
2564.39137,1.59643
2562.32996,1.59740
2560.26856,1.59799
2558.20715,1.59827
2556.14574,1.59969
2554.08433,1.60215
2552.02293,1.60433
2549.96152,1.60636
2547.90011,1.60873
2545.83870,1.61138
2543.77729,1.61389
2541.71589,1.61582
2539.65448,1.61810
2537.59307,1.62146
2535.53166,1.62504
2533.47025,1.62856
2531.40885,1.63261
2529.34744,1.63751
2527.28603,1.64187
2525.22462,1.64453
2523.16322,1.64768
2521.10181,1.65264
2519.04040,1.65697
2516.97899,1.65867
2514.91758,1.65796
2512.85618,1.65634
2510.79477,1.65539
2508.73336,1.65375
2506.67195,1.65021
2504.61054,1.64715
2502.54914,1.64552
2500.48773,1.64393
2498.42632,1.64225
2496.36491,1.64101
2494.30351,1.63998
2492.24210,1.63910
2490.18069,1.63852
2488.11928,1.63858
2486.05787,1.63943
2483.99647,1.64029
2481.93506,1.64085
2479.87365,1.64160
2477.81224,1.64258
2475.75083,1.64408
2473.68943,1.64564
2471.62802,1.64684
2469.56661,1.64926
2467.50520,1.65231
2465.44380,1.65380
2463.38239,1.65475
2461.32098,1.65716
2459.25957,1.66028
2457.19816,1.66253
2455.13676,1.66416
2453.07535,1.66647
2451.01394,1.66950
2448.95253,1.67256
2446.89112,1.67629
2444.82972,1.68039
2442.76831,1.68343
2440.70690,1.68564
2438.64549,1.68790
2436.58409,1.68975
2434.52268,1.69068
2432.46127,1.69196
2430.39986,1.69471
2428.33845,1.69778
2426.27705,1.70030
2424.21564,1.70258
2422.15423,1.70440
2420.09282,1.70590
2418.03141,1.70813
2415.97001,1.71175
2413.90860,1.71539
2411.84719,1.71732
2409.78578,1.71864
2407.72438,1.72136
2405.66297,1.72488
2403.60156,1.72781
2401.54015,1.73037
2399.47874,1.73256
2397.41734,1.73446
2395.35593,1.73742
2393.29452,1.74191
2391.23311,1.74587
2389.17170,1.74862
2387.11030,1.75203
2385.04889,1.75616
2382.98748,1.75985
2380.92607,1.76249
2378.86467,1.76526
2376.80326,1.76906
2374.74185,1.77219
2372.68044,1.77463
2370.61903,1.77707
2368.55763,1.77862
2366.49622,1.78134
2364.43481,1.78772
2362.37340,1.79395
2360.31199,1.79471
2358.25059,1.79282
2356.18918,1.79409
2354.12777,1.79872
2352.06636,1.80476
2350.00496,1.81101
2347.94355,1.81565
2345.88214,1.81736
2343.82073,1.81884
2341.75932,1.82387
2339.69792,1.82776
2337.63651,1.82734
2335.57510,1.82820
2333.51369,1.83116
2331.45228,1.83232
2329.39088,1.83274
2327.32947,1.83450
2325.26806,1.83871
2323.20665,1.84588
2321.14525,1.85161
2319.08384,1.85310
2317.02243,1.85438
2314.96102,1.85781
2312.89961,1.86167
2310.83821,1.86369
2308.77680,1.86406
2306.71539,1.86523
2304.65398,1.86774
2302.59257,1.86995
2300.53117,1.87139
2298.46976,1.87324
2296.40835,1.87562
2294.34694,1.87689
2292.28554,1.87698
2290.22413,1.87747
2288.16272,1.87855
2286.10131,1.87927
2284.03990,1.88010
2281.97850,1.88110
2279.91709,1.88118
2277.85568,1.88112
2275.79427,1.88240
2273.73286,1.88408
2271.67146,1.88490
2269.61005,1.88530
2267.54864,1.88611
2265.48723,1.88811
2263.42583,1.88960
2261.36442,1.88890
2259.30301,1.88799
2257.24160,1.88776
2255.18019,1.88846
2253.11879,1.89016
2251.05738,1.89028
2248.99597,1.88858
2246.93456,1.88757
2244.87315,1.88809
2242.81175,1.88874
2240.75034,1.88774
2238.68893,1.88652
2236.62752,1.88685
2234.56612,1.88673
2232.50471,1.88531
2230.44330,1.88452
2228.38189,1.88418
2226.32048,1.88328
2224.25908,1.88282
2222.19767,1.88324
2220.13626,1.88392
2218.07485,1.88516
2216.01344,1.88668
2213.95204,1.88679
2211.89063,1.88533
2209.82922,1.88397
2207.76781,1.88354
2205.70641,1.88349
2203.64500,1.88358
2201.58359,1.88292
2199.52218,1.88019
2197.46077,1.87787
2195.39937,1.87806
2193.33796,1.87768
2191.27655,1.87456
2189.21514,1.87085
2187.15373,1.86874
2185.09233,1.86777
2183.03092,1.86725
2180.96951,1.86654
2178.90810,1.86488
2176.84670,1.86385
2174.78529,1.86445
2172.72388,1.86590
2170.66247,1.86692
2168.60106,1.86579
2166.53966,1.86285
2164.47825,1.86007
2162.41684,1.85901
2160.35543,1.86006
2158.29402,1.86147
2156.23262,1.86186
2154.17121,1.86230
2152.10980,1.86314
2150.04839,1.86333
2147.98699,1.86340
2145.92558,1.86351
2143.86417,1.86233
2141.80276,1.86109
2139.74135,1.86251
2137.67995,1.86571
2135.61854,1.86766
2133.55713,1.86821
2131.49572,1.86906
2129.43431,1.86913
2127.37291,1.86771
2125.31150,1.86665
2123.25009,1.86663
2121.18868,1.86673
2119.12728,1.86667
2117.06587,1.86661
2115.00446,1.86647
2112.94305,1.86661
2110.88164,1.86617
2108.82024,1.86328
2106.75883,1.85888
2104.69742,1.85475
2102.63601,1.85004
2100.57461,1.84466
2098.51320,1.84090
2096.45179,1.83859
2094.39038,1.83557
2092.32897,1.83125
2090.26757,1.82605
2088.20616,1.82115
2086.14475,1.81709
2084.08334,1.81285
2082.02193,1.80848
2079.96053,1.80502
2077.89912,1.80321
2075.83771,1.80251
2073.77630,1.80159
2071.71490,1.80018
2069.65349,1.79913
2067.59208,1.79900
2065.53067,1.79770
2063.46926,1.79489
2061.40786,1.79287
2059.34645,1.79216
2057.28504,1.79253
2055.22363,1.79242
2053.16222,1.79119
2051.10082,1.79029
2049.03941,1.78916
2046.97800,1.78747
2044.91659,1.78623
2042.85519,1.78492
2040.79378,1.78389
2038.73237,1.78355
2036.67096,1.78285
2034.60955,1.78207
2032.54815,1.78152
2030.48674,1.78068
2028.42533,1.77963
2026.36392,1.77818
2024.30251,1.77627
2022.24111,1.77609
2020.17970,1.77819
2018.11829,1.77967
2016.05688,1.78051
2013.99548,1.78286
2011.93407,1.78549
2009.87266,1.78618
2007.81125,1.78492
2005.74984,1.78246
2003.68844,1.77981
2001.62703,1.77849
1999.56562,1.77912
1997.50421,1.78044
1995.44280,1.78093
1993.38140,1.78090
1991.31999,1.78093
1989.25858,1.78147
1987.19717,1.78230
1985.13577,1.78220
1983.07436,1.78135
1981.01295,1.78040
1978.95154,1.78001
1976.89013,1.78127
1974.82873,1.78302
1972.76732,1.78309
1970.70591,1.78255
1968.64450,1.78281
1966.58309,1.78246
1964.52169,1.78135
1962.46028,1.78062
1960.39887,1.78017
1958.33746,1.78019
1956.27606,1.78046
1954.21465,1.78097
1952.15324,1.78199
1950.09183,1.78185
1948.03042,1.78025
1945.96902,1.78012
1943.90761,1.78182
1941.84620,1.78215
1939.78479,1.78028
1937.72338,1.77844
1935.66198,1.77722
1933.60057,1.77647
1931.53916,1.77755
1929.47775,1.77902
1927.41635,1.77790
1925.35494,1.77744
1923.29353,1.77976
1921.23212,1.78148
1919.17071,1.78148
1917.10931,1.77940
1915.04790,1.77758
1912.98649,1.77863
1910.92508,1.78056
1908.86367,1.78216
1906.80227,1.78425
1904.74086,1.78613
1902.67945,1.78621
1900.61804,1.78576
1898.55664,1.78672
1896.49523,1.78901
1894.43382,1.79100
1892.37241,1.79203
1890.31100,1.79335
1888.24960,1.79410
1886.18819,1.79363
1884.12678,1.79324
1882.06537,1.79427
1880.00396,1.79594
1877.94256,1.79629
1875.88115,1.79643
1873.81974,1.79920
1871.75833,1.80479
1869.69693,1.80950
1867.63552,1.80943
1865.57411,1.80701
1863.51270,1.80639
1861.45129,1.80871
1859.38989,1.81180
1857.32848,1.81237
1855.26707,1.81180
1853.20566,1.81269
1851.14425,1.81519
1849.08285,1.81791
1847.02144,1.81976
1844.96003,1.82134
1842.89862,1.82170
1840.83722,1.82185
1838.77581,1.82369
1836.71440,1.82537
1834.65299,1.82670
1832.59158,1.83018
1830.53018,1.83377
1828.46877,1.83478
1826.40736,1.83722
1824.34595,1.84042
1822.28454,1.84105
1820.22314,1.84216
1818.16173,1.84503
1816.10032,1.84786
1814.03891,1.85123
1811.97751,1.85546
1809.91610,1.85887
1807.85469,1.86077
1805.79328,1.86293
1803.73187,1.86664
1801.67047,1.87015
1799.60906,1.87184
1797.54765,1.87404
1795.48624,1.87878
1793.42483,1.88225
1791.36343,1.87931
1789.30202,1.87650
1787.24061,1.87839
1785.17920,1.88107
1783.11780,1.88291
1781.05639,1.88462
1778.99498,1.88530
1776.93357,1.88549
1774.87216,1.88677
1772.81076,1.88904
1770.74935,1.89059
1768.68794,1.89176
1766.62653,1.89378
1764.56512,1.89673
1762.50372,1.89963
1760.44231,1.90130
1758.38090,1.90316
1756.31949,1.90543
1754.25809,1.90900
1752.19668,1.91378
1750.13527,1.91646
1748.07386,1.91784
1746.01245,1.91968
1743.95105,1.92159
1741.88964,1.92484
1739.82823,1.92887
1737.76682,1.93310
1735.70541,1.93789
1733.64401,1.94050
1731.58260,1.94285
1729.52119,1.94655
1727.45978,1.94922
1725.39838,1.95158
1723.33697,1.95479
1721.27556,1.95997
1719.21415,1.96614
1717.15274,1.96915
1715.09134,1.97020
1713.02993,1.97378
1710.96852,1.97936
1708.90711,1.98560
1706.84570,1.98945
1704.78430,1.99293
1702.72289,2.00139
1700.66148,2.01024
1698.60007,2.01409
1696.53867,2.02148
1694.47726,2.03317
1692.41585,2.04180
1690.35444,2.04631
1688.29303,2.04547
1686.23163,2.03936
1684.17022,2.02240
1682.10881,2.00502
1680.04740,1.99959
1677.98599,1.99802
1675.92459,1.99738
1673.86318,2.00028
1671.80177,2.00569
1669.74036,2.01021
1667.67896,2.01506
1665.61755,2.02017
1663.55614,2.02510
1661.49473,2.03082
1659.43332,2.03778
1657.37192,2.04517
1655.31051,2.04992
1653.24910,2.05373
1651.18769,2.06851
1649.12628,2.08404
1647.06488,2.09633
1645.00347,2.10867
1642.94206,2.12555
1640.88065,2.14565
1638.81925,2.16035
1636.75784,2.16583
1634.69643,2.16198
1632.63502,2.13812
1630.57361,2.08011
1628.51221,1.97267
1626.45080,1.84742
1624.38939,1.73790
1622.32798,1.65737
1620.26657,1.62521
1618.20517,1.62729
1616.14376,1.65124
1614.08235,1.68367
1612.02094,1.71292
1609.95954,1.73862
1607.89813,1.75981
1605.83672,1.77768
1603.77531,1.79262
1601.71390,1.80552
1599.65250,1.81672
1597.59109,1.82581
1595.52968,1.83375
1593.46827,1.84136
1591.40686,1.84829
1589.34546,1.85408
1587.28405,1.85866
1585.22264,1.86230
1583.16123,1.86619
1581.09983,1.87106
1579.03842,1.87515
1576.97701,1.87605
1574.91560,1.87637
1572.85419,1.87936
1570.79279,1.88252
1568.73138,1.88667
1566.66997,1.89214
1564.60856,1.89541
1562.54715,1.89520
1560.48575,1.88859
1558.42434,1.87861
1556.36293,1.88616
1554.30152,1.89689
1552.24012,1.90122
1550.17871,1.90213
1548.11730,1.90432
1546.05589,1.90602
1543.99448,1.90264
1541.93308,1.89393
1539.87167,1.89136
1537.81026,1.90062
1535.74885,1.90733
1533.68744,1.91006
1531.62604,1.91303
1529.56463,1.91689
1527.50322,1.91925
1525.44181,1.91850
1523.38041,1.91260
1521.31900,1.90533
1519.25759,1.90684
1517.19618,1.91148
1515.13477,1.91489
1513.07337,1.91883
1511.01196,1.92088
1508.95055,1.91840
1506.88914,1.91287
1504.82773,1.91520
1502.76633,1.92148
1500.70492,1.92427
1498.64351,1.92195
1496.58210,1.91975
1494.52070,1.92320
1492.45929,1.92669
1490.39788,1.92588
1488.33647,1.92494
1486.27506,1.92942
1484.21366,1.93598
1482.15225,1.94182
1480.09084,1.94639
1478.02943,1.94840
1475.96802,1.94652
1473.90662,1.94135
1471.84521,1.94062
1469.78380,1.94755
1467.72239,1.95366
1465.66099,1.95619
1463.59958,1.95917
1461.53817,1.96304
1459.47676,1.96143
1457.41535,1.95385
1455.35395,1.95637
1453.29254,1.96644
1451.23113,1.97369
1449.16972,1.97743
1447.10831,1.97970
1445.04691,1.98184
1442.98550,1.98420
1440.92409,1.98603
1438.86268,1.98521
1436.80128,1.98485
1434.73987,1.99032
1432.67846,1.99535
1430.61705,1.99659
1428.55564,1.99820
1426.49424,2.00165
1424.43283,2.00479
1422.37142,2.00831
1420.31001,2.01181
1418.24860,2.01389
1416.18720,2.01830
1414.12579,2.02583
1412.06438,2.03168
1410.00297,2.03402
1407.94157,2.03680
1405.88016,2.04325
1403.81875,2.05223
1401.75734,2.05942
1399.69593,2.06538
1397.63453,2.07065
1395.57312,2.07302
1393.51171,2.07719
1391.45030,2.08596
1389.38889,2.09512
1387.32749,2.10190
1385.26608,2.10665
1383.20467,2.11123
1381.14326,2.11688
1379.08186,2.12333
1377.02045,2.12923
1374.95904,2.13496
1372.89763,2.14243
1370.83622,2.15093
1368.77482,2.15797
1366.71341,2.16277
1364.65200,2.16746
1362.59059,2.17309
1360.52918,2.17958
1358.46778,2.18596
1356.40637,2.19193
1354.34496,2.19918
1352.28355,2.20683
1350.22215,2.21263
1348.16074,2.21719
1346.09933,2.22326
1344.03792,2.23116
1341.97651,2.23893
1339.91511,2.24531
1337.85370,2.25051
1335.79229,2.25991
1333.73088,2.27612
1331.66947,2.28830
1329.60807,2.29114
1327.54666,2.29586
1325.48525,2.30614
1323.42384,2.31796
1321.36244,2.33216
1319.30103,2.34811
1317.23962,2.36114
1315.17821,2.36802
1313.11680,2.37252
1311.05540,2.38046
1308.99399,2.39195
1306.93258,2.40632
1304.87117,2.42074
1302.80976,2.43372
1300.74836,2.45042
1298.68695,2.47022
1296.62554,2.48724
1294.56413,2.50015
1292.50273,2.51109
1290.44132,2.52149
1288.37991,2.53897
1286.31850,2.56983
1284.25709,2.60174
1282.19569,2.62324
1280.13428,2.63665
1278.07287,2.64771
1276.01146,2.66076
1273.95005,2.67388
1271.88865,2.68628
1269.82724,2.70522
1267.76583,2.72255
1265.70442,2.72685
1263.64302,2.72386
1261.58161,2.71476
1259.52020,2.70415
1257.45879,2.69481
1255.39738,2.68274
1253.33598,2.67009
1251.27457,2.64730
1249.21316,2.60615
1247.15175,2.55200
1245.09034,2.49308
1243.02894,2.44040
1240.96753,2.39296
1238.90612,2.34135
1236.84471,2.28387
1234.78331,2.22622
1232.72190,2.17334
1230.66049,2.12292
1228.59908,2.07005
1226.53767,2.01249
1224.47627,1.94991
1222.41486,1.88488
1220.35345,1.81955
1218.29204,1.75246
1216.23063,1.68220
1214.16923,1.60978
1212.10782,1.53745
1210.04641,1.46607
1207.98500,1.39600
1205.92360,1.32895
1203.86219,1.26653
1201.80078,1.20969
1199.73937,1.15929
1197.67796,1.11553
1195.61656,1.07750
1193.55515,1.04307
1191.49374,1.00943
1189.43233,0.97432
1187.37092,0.93723
1185.30952,0.89952
1183.24811,0.86280
1181.18670,0.82748
1179.12529,0.79299
1177.06389,0.75870
1175.00248,0.72468
1172.94107,0.69232
1170.87966,0.66381
1168.81825,0.64079
1166.75685,0.62338
1164.69544,0.61050
1162.63403,0.60096
1160.57262,0.59383
1158.51121,0.58831
1156.44981,0.58399
1154.38840,0.58116
1152.32699,0.58008
1150.26558,0.58074
1148.20418,0.58328
1146.14277,0.58790
1144.08136,0.59478
1142.01995,0.60389
1139.95854,0.61490
1137.89714,0.62724
1135.83573,0.64022
1133.77432,0.65297
1131.71291,0.66488
1129.65150,0.67583
1127.59010,0.68625
1125.52869,0.69671
1123.46728,0.70733
1121.40587,0.71838
1119.34447,0.73060
1117.28306,0.74477
1115.22165,0.76146
1113.16024,0.78131
1111.09883,0.80476
1109.03743,0.83150
1106.97602,0.86056
1104.91461,0.89022
1102.85320,0.91844
1100.79179,0.94480
1098.73039,0.96976
1096.66898,0.99304
1094.60757,1.01497
1092.54616,1.03650
1090.48476,1.05735
1088.42335,1.07702
1086.36194,1.09571
1084.30053,1.11331
1082.23912,1.12973
1080.17772,1.14526
1078.11631,1.15985
1076.05490,1.17364
1073.99349,1.18712
1071.93208,1.19969
1069.87068,1.21116
1067.80927,1.22241
1065.74786,1.23331
1063.68645,1.24359
1061.62505,1.25381
1059.56364,1.26357
1057.50223,1.27241
1055.44082,1.28137
1053.37941,1.29067
1051.31801,1.29925
1049.25660,1.30653
1047.19519,1.31326
1045.13378,1.32020
1043.07238,1.32707
1041.01097,1.33351
1038.94956,1.33997
1036.88815,1.34677
1034.82674,1.35346
1032.76534,1.35963
1030.70393,1.36510
1028.64252,1.37045
1026.58111,1.37709
1024.51970,1.38383
1022.45830,1.38842
1020.39689,1.39215
1018.33548,1.39699
1016.27407,1.40299
1014.21267,1.40912
1012.15126,1.41454
1010.08985,1.42011
1008.02844,1.42601
1005.96703,1.42928
1003.90563,1.42850
1001.84422,1.42798
999.78281,1.43124
997.72140,1.43671
995.65999,1.44170
993.59859,1.44524
991.53718,1.44870
989.47577,1.45289
987.41436,1.45708
985.35296,1.46170
983.29155,1.46656
981.23014,1.47078
979.16873,1.47432
977.10732,1.47739
975.04592,1.48021
972.98451,1.48263
970.92310,1.48544
968.86169,1.48932
966.80028,1.49294
964.73888,1.49562
962.67747,1.49804
960.61606,1.50066
958.55465,1.50383
956.49325,1.50760
954.43184,1.51099
952.37043,1.51386
950.30902,1.51726
948.24761,1.52094
946.18621,1.52427
944.12480,1.52783
942.06339,1.53053
940.00198,1.53193
937.94057,1.53436
935.87917,1.53727
933.81776,1.53954
931.75635,1.54208
929.69494,1.54493
927.63354,1.54794
925.57213,1.55044
923.51072,1.55265
921.44931,1.55571
919.38790,1.55935
917.32650,1.56196
915.26509,1.56297
913.20368,1.56447
911.14227,1.56790
909.08086,1.57189
907.01946,1.57486
904.95805,1.57702
902.89664,1.57938
900.83523,1.58208
898.77383,1.58570
896.71242,1.58956
894.65101,1.59195
892.58960,1.59383
890.52819,1.59593
888.46679,1.59836
886.40538,1.60076
884.34397,1.60104
882.28256,1.59968
880.22115,1.59935
878.15975,1.60053
876.09834,1.60255
874.03693,1.60535
871.97552,1.60799
869.91412,1.60996
867.85271,1.61209
865.79130,1.61480
863.72989,1.61873
861.66848,1.62308
859.60708,1.62561
857.54567,1.62793
855.48426,1.63170
853.42285,1.63512
851.36144,1.63760
849.30004,1.64003
847.23863,1.64390
845.17722,1.64902
843.11581,1.65360
841.05441,1.65668
838.99300,1.65744
836.93159,1.65744
834.87018,1.65981
832.80877,1.66367
830.74737,1.66647
828.68596,1.66952
826.62455,1.67351
824.56314,1.67610
822.50173,1.67834
820.44033,1.68250
818.37892,1.68691
816.31751,1.68974
814.25610,1.69296
812.19470,1.69794
810.13329,1.70240
808.07188,1.70532
806.01047,1.70711
803.94906,1.70828
801.88766,1.71076
799.82625,1.71509
797.76484,1.71946
795.70343,1.72350
793.64202,1.72692
791.58062,1.72969
789.51921,1.73385
787.45780,1.73959
785.39639,1.74493
783.33499,1.74905
781.27358,1.75378
779.21217,1.75980
777.15076,1.76494
775.08935,1.76841
773.02795,1.77206
770.96654,1.77610
768.90513,1.78096
766.84372,1.78774
764.78231,1.79531
762.72091,1.80103
760.65950,1.80382
758.59809,1.80719
756.53668,1.81389
754.47528,1.82120
752.41387,1.82834
750.35246,1.83828
748.29105,1.84925
746.22964,1.85637
744.16824,1.86039
742.10683,1.86717
740.04542,1.87814
737.98401,1.89013
735.92260,1.90014
733.86120,1.90995
731.79979,1.92188
729.73838,1.93315
727.67697,1.94537
725.61557,1.95769
723.55416,1.96457
721.49275,1.97060
719.43134,1.98334
717.36993,1.99891
715.30853,2.01124
713.24712,2.02118
711.18571,2.03539
709.12430,2.05518
707.06289,2.07194
705.00149,2.08248
702.94008,2.09168
700.87867,2.09624
698.81726,2.07845
696.75586,2.03407
694.69445,1.97964
692.63304,1.91849
690.57163,1.83114
688.51022,1.72275
686.44882,1.61052
684.38741,1.49757
682.32600,1.38897
680.26459,1.29388
678.20318,1.21789
676.14178,1.16277
674.08037,1.12891
672.01896,1.11596
669.95755,1.12470
667.89615,1.17009
665.83474,1.23881
663.77333,1.30273
661.71192,1.37055
659.65051,1.43813
657.58911,1.49813
655.52770,1.55080
653.46629,1.59854
651.40488,1.64275
649.34347,1.68435
647.28207,1.72649
645.22066,1.76967
643.15925,1.80441
641.09784,1.82883
639.03644,1.85395
636.97503,1.88557
634.91362,1.91411
632.85221,1.93006
630.79080,1.94241
628.72940,1.95600
626.66799,1.96403
624.60658,1.95730
622.54517,1.92501
620.48376,1.86377
618.42236,1.77978
616.36095,1.67957
614.29954,1.57483
612.23813,1.47323
610.17673,1.38072
608.11532,1.30466
606.05391,1.24882
603.99250,1.21309
601.93109,1.19529
599.86969,1.19480
597.80828,1.21085
595.74687,1.23802
593.68546,1.27014
591.62405,1.30472
589.56265,1.33762
587.50124,1.36448
585.43983,1.38458
583.37842,1.39869
581.31702,1.41290
579.25561,1.42836
577.19420,1.44095
575.13279,1.45279
573.07138,1.46410
571.00998,1.47639
568.94857,1.49434
566.88716,1.51384
564.82575,1.52817
562.76434,1.53510
560.70294,1.54037
558.64153,1.55159
556.58012,1.56440
554.51871,1.57597
552.45731,1.58714
550.39590,1.59285
548.33449,1.59460
546.27308,1.59771
544.21167,1.60110
542.15027,1.60200
540.08886,1.60135
538.02745,1.60217
535.96604,1.60534
533.90463,1.60383
531.84323,1.59410
529.78182,1.58650
527.72041,1.58495
525.65900,1.58187
523.59760,1.57340
521.53619,1.56507
519.47478,1.56042
517.41337,1.55107
515.35196,1.53413
513.29056,1.51782
511.22915,1.50403
509.16774,1.49025
507.10633,1.47479
505.04492,1.46015
502.98352,1.44820
500.92211,1.43463
498.86070,1.41667
496.79929,1.40002
494.73789,1.39114
492.67648,1.38761
490.61507,1.38015
488.55366,1.36538
486.49225,1.35155
484.43085,1.34435
482.36944,1.33598
480.30803,1.32323
478.24662,1.31260
476.18521,1.30555
474.12381,1.30050
472.06240,1.29485
470.00099,1.28985
467.93958,1.28865
465.87818,1.28580
463.81677,1.27999
461.75536,1.28025
459.69395,1.28807
457.63254,1.29374
455.57114,1.29149
453.50973,1.28921
451.44832,1.29035
449.38691,1.29080
447.32550,1.29236
445.26410,1.29897
443.20269,1.31000
441.14128,1.32029
439.07987,1.32471
437.01847,1.32751
434.95706,1.33541
432.89565,1.34575
430.83424,1.35137
428.77283,1.35181
426.71143,1.34858
424.65002,1.34257
422.58861,1.34129
420.52720,1.34422
418.46579,1.33988
416.40439,1.34017
414.34298,1.35072
412.28157,1.35599
410.22016,1.35612
408.15876,1.36177
406.09735,1.36555
404.03594,1.36372
401.97453,1.36276
399.91312,1.37015
