3997.06983,1.06785
3995.00842,1.06850
3992.94702,1.06846
3990.88561,1.06844
3988.82420,1.06830
3986.76279,1.06798
3984.70139,1.06856
3982.63998,1.06983
3980.57857,1.07047
3978.51716,1.07066
3976.45575,1.07138
3974.39435,1.07246
3972.33294,1.07276
3970.27153,1.07206
3968.21012,1.07134
3966.14871,1.07203
3964.08731,1.07411
3962.02590,1.07492
3959.96449,1.07400
3957.90308,1.07356
3955.84168,1.07425
3953.78027,1.07560
3951.71886,1.07698
3949.65745,1.07788
3947.59604,1.07757
3945.53464,1.07746
3943.47323,1.07829
3941.41182,1.07753
3939.35041,1.07634
3937.28900,1.07672
3935.22760,1.07827
3933.16619,1.08080
3931.10478,1.08156
3929.04337,1.07968
3926.98197,1.07995
3924.92056,1.08241
3922.85915,1.08281
3920.79774,1.08246
3918.73633,1.08316
3916.67493,1.08221
3914.61352,1.07946
3912.55211,1.07833
3910.49070,1.07931
3908.42929,1.08186
3906.36789,1.08728
3904.30648,1.09285
3902.24507,1.09313
3900.18366,1.08959
3898.12226,1.08547
3896.06085,1.08383
3893.99944,1.08605
3891.93803,1.08812
3889.87662,1.08725
3887.81522,1.08810
3885.75381,1.09027
3883.69240,1.09063
3881.63099,1.09149
3879.56958,1.09001
3877.50818,1.08706
3875.44677,1.08823
3873.38536,1.09159
3871.32395,1.09529
3869.26255,1.09684
3867.20114,1.09550
3865.13973,1.09554
3863.07832,1.09395
3861.01691,1.09058
3858.95551,1.09117
3856.89410,1.09632
3854.83269,1.10247
3852.77128,1.10058
3850.70987,1.09310
3848.64847,1.09066
3846.58706,1.09205
3844.52565,1.09462
3842.46424,1.09789
3840.40284,1.10165
3838.34143,1.10241
3836.28002,1.09913
3834.21861,1.09690
3832.15720,1.09596
3830.09580,1.09492
3828.03439,1.09498
3825.97298,1.09550
3823.91157,1.09769
3821.85016,1.10231
3819.78876,1.10294
3817.72735,1.10084
3815.66594,1.09832
3813.60453,1.09454
3811.54313,1.09362
3809.48172,1.09604
3807.42031,1.09880
3805.35890,1.09947
3803.29749,1.10102
3801.23609,1.10256
3799.17468,1.10206
3797.11327,1.10164
3795.05186,1.09939
3792.99045,1.09761
3790.92905,1.09834
3788.86764,1.09967
3786.80623,1.10143
3784.74482,1.10269
3782.68342,1.10293
3780.62201,1.10342
3778.56060,1.10283
3776.49919,1.10157
3774.43778,1.10230
3772.37638,1.10559
3770.31497,1.10924
3768.25356,1.11006
3766.19215,1.10956
3764.13074,1.10855
3762.06934,1.10877
3760.00793,1.11210
3757.94652,1.11458
3755.88511,1.11571
3753.82371,1.11931
3751.76230,1.12326
3749.70089,1.12107
3747.63948,1.11885
3745.57807,1.12045
3743.51667,1.11821
3741.45526,1.11540
3739.39385,1.11896
3737.33244,1.12664
3735.27103,1.13102
3733.20963,1.12680
3731.14822,1.12147
3729.08681,1.12161
3727.02540,1.12547
3724.96400,1.12828
3722.90259,1.12823
3720.84118,1.12696
3718.77977,1.12623
3716.71836,1.12783
3714.65696,1.13247
3712.59555,1.13774
3710.53414,1.13756
3708.47273,1.13359
3706.41132,1.13212
3704.34992,1.13371
3702.28851,1.13549
3700.22710,1.13467
3698.16569,1.13417
3696.10429,1.13609
3694.04288,1.13993
3691.98147,1.14553
3689.92006,1.14888
3687.85865,1.14469
3685.79725,1.13970
3683.73584,1.13907
3681.67443,1.14189
3679.61302,1.14701
3677.55161,1.15380
3675.49021,1.15673
3673.42880,1.15235
3671.36739,1.15135
3669.30598,1.15076
3667.24458,1.14599
3665.18317,1.14369
3663.12176,1.14434
3661.06035,1.14616
3658.99894,1.14959
3656.93754,1.15272
3654.87613,1.15284
3652.81472,1.15613
3650.75331,1.16639
3648.69190,1.17107
3646.63050,1.16162
3644.56909,1.15353
3642.50768,1.15153
3640.44627,1.15151
3638.38487,1.15111
3636.32346,1.15173
3634.26205,1.15380
3632.20064,1.15789
3630.13923,1.16495
3628.07783,1.16533
3626.01642,1.15735
3623.95501,1.15411
3621.89360,1.15687
3619.83219,1.16152
3617.77079,1.16258
3615.70938,1.16288
3613.64797,1.16446
3611.58656,1.16314
3609.52516,1.16089
3607.46375,1.15868
3605.40234,1.15537
3603.34093,1.15440
3601.27952,1.15628
3599.21812,1.15786
3597.15671,1.15908
3595.09530,1.16008
3593.03389,1.15866
3590.97248,1.15898
3588.91108,1.16457
3586.84967,1.16632
3584.78826,1.16000
3582.72685,1.15602
3580.66545,1.15589
3578.60404,1.15589
3576.54263,1.15548
3574.48122,1.15505
3572.41981,1.15544
3570.35841,1.16025
3568.29700,1.16893
3566.23559,1.17044
3564.17418,1.16340
3562.11277,1.15832
3560.05137,1.15602
3557.98996,1.15450
3555.92855,1.15485
3553.86714,1.15698
3551.80574,1.15746
3549.74433,1.15693
3547.68292,1.15929
3545.62151,1.16133
3543.56010,1.15894
3541.49870,1.15526
3539.43729,1.15365
3537.37588,1.15373
3535.31447,1.15386
3533.25306,1.15446
3531.19166,1.15636
3529.13025,1.15829
3527.06884,1.15895
3525.00743,1.15896
3522.94603,1.15822
3520.88462,1.15634
3518.82321,1.15478
3516.76180,1.15445
3514.70039,1.15502
3512.63899,1.15592
3510.57758,1.15635
3508.51617,1.15588
3506.45476,1.15629
3504.39335,1.15854
3502.33195,1.15900
3500.27054,1.15680
3498.20913,1.15571
3496.14772,1.15594
3494.08632,1.15581
3492.02491,1.15579
3489.96350,1.15635
3487.90209,1.15668
3485.84068,1.15656
3483.77928,1.15656
3481.71787,1.15643
3479.65646,1.15577
3477.59505,1.15502
3475.53364,1.15446
3473.47224,1.15413
3471.41083,1.15452
3469.34942,1.15545
3467.28801,1.15584
3465.22661,1.15494
3463.16520,1.15378
3461.10379,1.15359
3459.04238,1.15392
3456.98097,1.15423
3454.91957,1.15434
3452.85816,1.15408
3450.79675,1.15434
3448.73534,1.15598
3446.67393,1.15690
3444.61253,1.15530
3442.55112,1.15364
3440.48971,1.15328
3438.42830,1.15292
3436.36690,1.15274
3434.30549,1.15356
3432.24408,1.15409
3430.18267,1.15339
3428.12126,1.15263
3426.05986,1.15255
3423.99845,1.15329
3421.93704,1.15453
3419.87563,1.15465
3417.81422,1.15360
3415.75282,1.15315
3413.69141,1.15323
3411.63000,1.15296
3409.56859,1.15280
3407.50719,1.15293
3405.44578,1.15283
3403.38437,1.15280
3401.32296,1.15318
3399.26155,1.15352
3397.20015,1.15317
3395.13874,1.15272
3393.07733,1.15326
3391.01592,1.15379
3388.95451,1.15336
3386.89311,1.15282
3384.83170,1.15290
3382.77029,1.15296
3380.70888,1.15267
3378.64748,1.15266
3376.58607,1.15279
3374.52466,1.15249
3372.46325,1.15209
3370.40184,1.15249
3368.34044,1.15348
3366.27903,1.15385
3364.21762,1.15348
3362.15621,1.15319
3360.09480,1.15307
3358.03340,1.15282
3355.97199,1.15269
3353.91058,1.15283
3351.84917,1.15278
3349.78777,1.15212
3347.72636,1.15132
3345.66495,1.15105
3343.60354,1.15119
3341.54213,1.15140
3339.48073,1.15184
3337.41932,1.15234
3335.35791,1.15241
3333.29650,1.15202
3331.23509,1.15173
3329.17369,1.15208
3327.11228,1.15253
3325.05087,1.15240
3322.98946,1.15204
3320.92806,1.15185
3318.86665,1.15163
3316.80524,1.15119
3314.74383,1.15086
3312.68242,1.15102
3310.62102,1.15159
3308.55961,1.15217
3306.49820,1.15211
3304.43679,1.15145
3302.37538,1.15122
3300.31398,1.15174
3298.25257,1.15207
3296.19116,1.15165
3294.12975,1.15130
3292.06835,1.15159
3290.00694,1.15205
3287.94553,1.15257
3285.88412,1.15289
3283.82271,1.15269
3281.76131,1.15230
3279.69990,1.15219
3277.63849,1.15259
3275.57708,1.15270
3273.51567,1.15202
3271.45427,1.15164
3269.39286,1.15213
3267.33145,1.15270
3265.27004,1.15284
3263.20864,1.15236
3261.14723,1.15163
3259.08582,1.15165
3257.02441,1.15250
3254.96300,1.15290
3252.90160,1.15240
3250.84019,1.15215
3248.77878,1.15203
3246.71737,1.15142
3244.65596,1.15128
3242.59456,1.15167
3240.53315,1.15194
3238.47174,1.15230
3236.41033,1.15258
3234.34893,1.15242
3232.28752,1.15224
3230.22611,1.15219
3228.16470,1.15207
3226.10329,1.15212
3224.04189,1.15268
3221.98048,1.15351
3219.91907,1.15362
3217.85766,1.15267
3215.79625,1.15154
3213.73485,1.15101
3211.67344,1.15124
3209.61203,1.15177
3207.55062,1.15198
3205.48922,1.15198
3203.42781,1.15205
3201.36640,1.15217
3199.30499,1.15229
3197.24358,1.15238
3195.18218,1.15231
3193.12077,1.15224
3191.05936,1.15232
3188.99795,1.15254
3186.93654,1.15310
3184.87514,1.15334
3182.81373,1.15278
3180.75232,1.15252
3178.69091,1.15298
3176.62951,1.15336
3174.56810,1.15335
3172.50669,1.15325
3170.44528,1.15318
3168.38387,1.15288
3166.32247,1.15273
3164.26106,1.15294
3162.19965,1.15305
3160.13824,1.15321
3158.07683,1.15346
3156.01543,1.15354
3153.95402,1.15357
3151.89261,1.15366
3149.83120,1.15389
3147.76980,1.15410
3145.70839,1.15407
3143.64698,1.15391
3141.58557,1.15387
3139.52416,1.15386
3137.46276,1.15388
3135.40135,1.15415
3133.33994,1.15437
3131.27853,1.15408
3129.21713,1.15360
3127.15572,1.15352
3125.09431,1.15393
3123.03290,1.15442
3120.97149,1.15484
3118.91009,1.15516
3116.84868,1.15519
3114.78727,1.15505
3112.72586,1.15479
3110.66445,1.15429
3108.60305,1.15390
3106.54164,1.15405
3104.48023,1.15449
3102.41882,1.15472
3100.35742,1.15461
3098.29601,1.15436
3096.23460,1.15418
3094.17319,1.15413
3092.11178,1.15437
3090.05038,1.15476
3087.98897,1.15497
3085.92756,1.15506
3083.86615,1.15530
3081.80474,1.15568
3079.74334,1.15572
3077.68193,1.15515
3075.62052,1.15458
3073.55911,1.15454
3071.49771,1.15476
3069.43630,1.15501
3067.37489,1.15550
3065.31348,1.15588
3063.25207,1.15576
3061.19067,1.15543
3059.12926,1.15507
3057.06785,1.15459
3055.00644,1.15447
3052.94503,1.15500
3050.88363,1.15540
3048.82222,1.15514
3046.76081,1.15475
3044.69940,1.15476
3042.63800,1.15486
3040.57659,1.15484
3038.51518,1.15488
3036.45377,1.15498
3034.39236,1.15526
3032.33096,1.15573
3030.26955,1.15607
3028.20814,1.15609
3026.14673,1.15605
3024.08532,1.15611
3022.02392,1.15602
3019.96251,1.15572
3017.90110,1.15586
3015.83969,1.15655
3013.77829,1.15699
3011.71688,1.15689
3009.65547,1.15640
3007.59406,1.15601
3005.53265,1.15613
3003.47125,1.15657
3001.40984,1.15707
2999.34843,1.15730
2997.28702,1.15733
2995.22561,1.15772
2993.16421,1.15802
2991.10280,1.15767
2989.04139,1.15705
2986.97998,1.15657
2984.91858,1.15659
2982.85717,1.15704
2980.79576,1.15737
2978.73435,1.15729
2976.67294,1.15703
2974.61154,1.15716
2972.55013,1.15749
2970.48872,1.15753
2968.42731,1.15736
2966.36590,1.15728
2964.30450,1.15757
2962.24309,1.15799
2960.18168,1.15807
2958.12027,1.15808
2956.05887,1.15817
2953.99746,1.15845
2951.93605,1.15904
2949.87464,1.15920
2947.81323,1.15853
2945.75183,1.15812
2943.69042,1.15823
2941.62901,1.15812
2939.56760,1.15816
2937.50619,1.15892
2935.44479,1.15993
2933.38338,1.16039
2931.32197,1.15995
2929.26056,1.15929
2927.19916,1.15908
2925.13775,1.15905
2923.07634,1.15915
2921.01493,1.15960
2918.95352,1.16005
2916.89212,1.15992
2914.83071,1.15929
2912.76930,1.15906
2910.70789,1.15947
2908.64648,1.15957
2906.58508,1.15916
2904.52367,1.15904
2902.46226,1.15930
2900.40085,1.15964
2898.33945,1.15998
2896.27804,1.16035
2894.21663,1.16055
2892.15522,1.16029
2890.09381,1.15993
2888.03241,1.15990
2885.97100,1.16016
2883.90959,1.16024
2881.84818,1.16012
2879.78677,1.16013
2877.72537,1.16022
2875.66396,1.16011
2873.60255,1.15976
2871.54114,1.15959
2869.47974,1.15975
2867.41833,1.16000
2865.35692,1.16024
2863.29551,1.16039
2861.23410,1.16032
2859.17270,1.16019
2857.11129,1.16013
2855.04988,1.15989
2852.98847,1.15964
2850.92706,1.15955
2848.86566,1.15943
2846.80425,1.15949
2844.74284,1.15986
2842.68143,1.16017
2840.62003,1.16032
2838.55862,1.16044
2836.49721,1.16064
2834.43580,1.16082
2832.37439,1.16067
2830.31299,1.16041
2828.25158,1.16043
2826.19017,1.16082
2824.12876,1.16119
2822.06735,1.16117
2820.00595,1.16089
2817.94454,1.16055
2815.88313,1.16051
2813.82172,1.16117
2811.76032,1.16188
2809.69891,1.16185
2807.63750,1.16153
2805.57609,1.16159
2803.51468,1.16202
2801.45328,1.16230
2799.39187,1.16218
2797.33046,1.16217
2795.26905,1.16237
2793.20764,1.16219
2791.14624,1.16185
2789.08483,1.16202
2787.02342,1.16232
2784.96201,1.16234
2782.90061,1.16230
2780.83920,1.16193
2778.77779,1.16122
2776.71638,1.16086
2774.65497,1.16106
2772.59357,1.16163
2770.53216,1.16216
2768.47075,1.16223
2766.40934,1.16232
2764.34793,1.16261
2762.28653,1.16267
2760.22512,1.16252
2758.16371,1.16224
2756.10230,1.16222
2754.04090,1.16276
2751.97949,1.16316
2749.91808,1.16293
2747.85667,1.16262
2745.79526,1.16291
2743.73386,1.16346
2741.67245,1.16370
2739.61104,1.16360
2737.54963,1.16342
2735.48822,1.16327
2733.42682,1.16304
2731.36541,1.16285
2729.30400,1.16303
2727.24259,1.16366
2725.18119,1.16405
2723.11978,1.16361
2721.05837,1.16305
2718.99696,1.16291
2716.93555,1.16309
2714.87415,1.16339
2712.81274,1.16386
2710.75133,1.16452
2708.68992,1.16477
2706.62851,1.16480
2704.56711,1.16499
2702.50570,1.16495
2700.44429,1.16476
2698.38288,1.16476
2696.32148,1.16478
2694.26007,1.16482
2692.19866,1.16516
2690.13725,1.16545
2688.07584,1.16531
2686.01444,1.16493
2683.95303,1.16503
2681.89162,1.16594
2679.83021,1.16661
2677.76880,1.16627
2675.70740,1.16573
2673.64599,1.16577
2671.58458,1.16590
2669.52317,1.16575
2667.46177,1.16566
2665.40036,1.16548
2663.33895,1.16515
2661.27754,1.16540
2659.21613,1.16622
2657.15473,1.16650
2655.09332,1.16626
2653.03191,1.16638
2650.97050,1.16667
2648.90909,1.16673
2646.84769,1.16704
2644.78628,1.16738
2642.72487,1.16716
2640.66346,1.16668
2638.60206,1.16645
2636.54065,1.16684
2634.47924,1.16753
2632.41783,1.16773
2630.35642,1.16767
2628.29502,1.16777
2626.23361,1.16799
2624.17220,1.16801
2622.11079,1.16796
2620.04938,1.16827
2617.98798,1.16840
2615.92657,1.16811
2613.86516,1.16792
2611.80375,1.16777
2609.74235,1.16790
2607.68094,1.16855
2605.61953,1.16864
2603.55812,1.16802
2601.49671,1.16803
2599.43531,1.16886
2597.37390,1.16934
2595.31249,1.16895
2593.25108,1.16828
2591.18967,1.16799
2589.12827,1.16807
2587.06686,1.16856
2585.00545,1.16933
2582.94404,1.16958
2580.88264,1.16927
2578.82123,1.16916
2576.75982,1.16941
2574.69841,1.16955
2572.63700,1.16949
2570.57560,1.16965
2568.51419,1.16984
2566.45278,1.16988
2564.39137,1.16997
2562.32996,1.16991
2560.26856,1.16971
2558.20715,1.16968
2556.14574,1.16962
2554.08433,1.16956
2552.02293,1.16980
2549.96152,1.17011
2547.90011,1.17036
2545.83870,1.17040
2543.77729,1.17044
2541.71589,1.17072
2539.65448,1.17073
2537.59307,1.17059
2535.53166,1.17109
2533.47025,1.17193
2531.40885,1.17249
2529.34744,1.17258
2527.28603,1.17214
2525.22462,1.17165
2523.16322,1.17165
2521.10181,1.17197
2519.04040,1.17219
2516.97899,1.17228
2514.91758,1.17213
2512.85618,1.17184
2510.79477,1.17196
2508.73336,1.17255
2506.67195,1.17310
2504.61054,1.17335
2502.54914,1.17336
2500.48773,1.17303
2498.42632,1.17273
2496.36491,1.17271
2494.30351,1.17266
2492.24210,1.17264
2490.18069,1.17279
2488.11928,1.17307
2486.05787,1.17327
2483.99647,1.17317
2481.93506,1.17311
2479.87365,1.17342
2477.81224,1.17380
2475.75083,1.17391
2473.68943,1.17382
2471.62802,1.17368
2469.56661,1.17359
2467.50520,1.17381
2465.44380,1.17446
2463.38239,1.17502
2461.32098,1.17523
2459.25957,1.17550
2457.19816,1.17574
2455.13676,1.17565
2453.07535,1.17552
2451.01394,1.17547
2448.95253,1.17548
2446.89112,1.17582
2444.82972,1.17612
2442.76831,1.17600
2440.70690,1.17586
2438.64549,1.17592
2436.58409,1.17591
2434.52268,1.17578
2432.46127,1.17574
2430.39986,1.17582
2428.33845,1.17593
2426.27705,1.17632
2424.21564,1.17686
2422.15423,1.17683
2420.09282,1.17657
2418.03141,1.17675
2415.97001,1.17717
2413.90860,1.17731
2411.84719,1.17696
2409.78578,1.17665
2407.72438,1.17692
2405.66297,1.17739
2403.60156,1.17743
2401.54015,1.17707
2399.47874,1.17699
2397.41734,1.17746
2395.35593,1.17810
2393.29452,1.17870
2391.23311,1.17926
2389.17170,1.17977
2387.11030,1.18033
2385.04889,1.18089
2382.98748,1.18147
2380.92607,1.18203
2378.86467,1.18180
2376.80326,1.18015
2374.74185,1.17782
2372.68044,1.17536
2370.61903,1.17211
2368.55763,1.16810
2366.49622,1.16431
2364.43481,1.16140
2362.37340,1.15978
2360.31199,1.15941
2358.25059,1.16028
2356.18918,1.16306
2354.12777,1.16759
2352.06636,1.17264
2350.00496,1.17674
2347.94355,1.17886
2345.88214,1.17799
2343.82073,1.17484
2341.75932,1.17205
2339.69792,1.17027
2337.63651,1.16943
2335.57510,1.16899
2333.51369,1.16871
2331.45228,1.16968
2329.39088,1.17162
2327.32947,1.17313
2325.26806,1.17439
2323.20665,1.17614
2321.14525,1.17780
2319.08384,1.17882
2317.02243,1.17986
2314.96102,1.18140
2312.89961,1.18306
2310.83821,1.18421
2308.77680,1.18456
2306.71539,1.18426
2304.65398,1.18380
2302.59257,1.18346
2300.53117,1.18309
2298.46976,1.18284
2296.40835,1.18291
2294.34694,1.18296
2292.28554,1.18266
2290.22413,1.18223
2288.16272,1.18223
2286.10131,1.18269
2284.03990,1.18297
2281.97850,1.18284
2279.91709,1.18261
2277.85568,1.18266
2275.79427,1.18292
2273.73286,1.18304
2271.67146,1.18299
2269.61005,1.18292
2267.54864,1.18282
2265.48723,1.18274
2263.42583,1.18289
2261.36442,1.18324
2259.30301,1.18362
2257.24160,1.18396
2255.18019,1.18419
2253.11879,1.18437
2251.05738,1.18443
2248.99597,1.18442
2246.93456,1.18463
2244.87315,1.18504
2242.81175,1.18545
2240.75034,1.18581
2238.68893,1.18614
2236.62752,1.18625
2234.56612,1.18614
2232.50471,1.18597
2230.44330,1.18603
2228.38189,1.18659
2226.32048,1.18701
2224.25908,1.18695
2222.19767,1.18689
2220.13626,1.18681
2218.07485,1.18673
2216.01344,1.18702
2213.95204,1.18766
2211.89063,1.18824
2209.82922,1.18838
2207.76781,1.18822
2205.70641,1.18799
2203.64500,1.18782
2201.58359,1.18783
2199.52218,1.18797
2197.46077,1.18829
2195.39937,1.18901
2193.33796,1.18939
2191.27655,1.18920
2189.21514,1.18937
2187.15373,1.18987
2185.09233,1.18997
2183.03092,1.18961
2180.96951,1.18930
2178.90810,1.18939
2176.84670,1.18989
2174.78529,1.19057
2172.72388,1.19094
2170.66247,1.19085
2168.60106,1.19061
2166.53966,1.19074
2164.47825,1.19115
2162.41684,1.19135
2160.35543,1.19135
2158.29402,1.19133
2156.23262,1.19149
2154.17121,1.19180
2152.10980,1.19194
2150.04839,1.19199
2147.98699,1.19215
2145.92558,1.19230
2143.86417,1.19255
2141.80276,1.19294
2139.74135,1.19315
2137.67995,1.19322
2135.61854,1.19330
2133.55713,1.19319
2131.49572,1.19316
2129.43431,1.19349
2127.37291,1.19376
2125.31150,1.19366
2123.25009,1.19344
2121.18868,1.19350
2119.12728,1.19382
2117.06587,1.19421
2115.00446,1.19473
2112.94305,1.19527
2110.88164,1.19531
2108.82024,1.19501
2106.75883,1.19511
2104.69742,1.19557
2102.63601,1.19585
2100.57461,1.19617
2098.51320,1.19669
2096.45179,1.19690
2094.39038,1.19651
2092.32897,1.19616
2090.26757,1.19627
2088.20616,1.19645
2086.14475,1.19646
2084.08334,1.19647
2082.02193,1.19665
2079.96053,1.19692
2077.89912,1.19713
2075.83771,1.19735
2073.77630,1.19762
2071.71490,1.19760
2069.65349,1.19734
2067.59208,1.19745
2065.53067,1.19771
2063.46926,1.19751
2061.40786,1.19751
2059.34645,1.19798
2057.28504,1.19817
2055.22363,1.19800
2053.16222,1.19796
2051.10082,1.19809
2049.03941,1.19815
2046.97800,1.19820
2044.91659,1.19878
2042.85519,1.19985
2040.79378,1.20013
2038.73237,1.19939
2036.67096,1.19874
2034.60955,1.19867
2032.54815,1.19908
2030.48674,1.19962
2028.42533,1.19990
2026.36392,1.19975
2024.30251,1.19942
2022.24111,1.19943
2020.17970,1.20017
2018.11829,1.20101
2016.05688,1.20065
2013.99548,1.19944
2011.93407,1.19877
2009.87266,1.19892
2007.81125,1.19934
2005.74984,1.19978
2003.68844,1.20009
2001.62703,1.20010
1999.56562,1.20018
1997.50421,1.20025
1995.44280,1.20083
1993.38140,1.20235
1991.31999,1.20260
1989.25858,1.20120
1987.19717,1.20022
1985.13577,1.19988
1983.07436,1.19989
1981.01295,1.20021
1978.95154,1.20053
1976.89013,1.20053
1974.82873,1.20021
1972.76732,1.20013
1970.70591,1.20109
1968.64450,1.20261
1966.58309,1.20270
1964.52169,1.20145
1962.46028,1.20092
1960.39887,1.20122
1958.33746,1.20151
1956.27606,1.20167
1954.21465,1.20159
1952.15324,1.20149
1950.09183,1.20162
1948.03042,1.20195
1945.96902,1.20318
1943.90761,1.20523
1941.84620,1.20509
1939.78479,1.20260
1937.72338,1.20127
1935.66198,1.20126
1933.60057,1.20127
1931.53916,1.20102
1929.47775,1.20079
1927.41635,1.20105
1925.35494,1.20264
1923.29353,1.20474
1921.23212,1.20561
1919.17071,1.20626
1917.10931,1.20559
1915.04790,1.20305
1912.98649,1.20217
1910.92508,1.20343
1908.86367,1.20405
1906.80227,1.20319
1904.74086,1.20250
1902.67945,1.20225
1900.61804,1.20204
1898.55664,1.20243
1896.49523,1.20314
1894.43382,1.20289
1892.37241,1.20322
1890.31100,1.20499
1888.24960,1.20477
1886.18819,1.20315
1884.12678,1.20261
1882.06537,1.20262
1880.00396,1.20273
1877.94256,1.20253
1875.88115,1.20235
1873.81974,1.20350
1871.75833,1.20767
1869.69693,1.21305
1867.63552,1.21251
1865.57411,1.20723
1863.51270,1.20432
1861.45129,1.20397
1859.38989,1.20412
1857.32848,1.20405
1855.26707,1.20425
1853.20566,1.20491
1851.14425,1.20588
1849.08285,1.20820
1847.02144,1.21260
1844.96003,1.21600
1842.89862,1.21297
1840.83722,1.20853
1838.77581,1.20827
1836.71440,1.20901
1834.65299,1.20887
1832.59158,1.21132
1830.53018,1.21557
1828.46877,1.21579
1826.40736,1.21434
1824.34595,1.21331
1822.28454,1.21102
1820.22314,1.21000
1818.16173,1.21065
1816.10032,1.21119
1814.03891,1.21236
1811.97751,1.21437
1809.91610,1.21478
1807.85469,1.21383
1805.79328,1.21418
1803.73187,1.21708
1801.67047,1.22086
1799.60906,1.22162
1797.54765,1.22048
1795.48624,1.22198
1793.42483,1.22568
1791.36343,1.22476
1789.30202,1.21951
1787.24061,1.21786
1785.17920,1.21937
1783.11780,1.22066
1781.05639,1.22150
1778.99498,1.22187
1776.93357,1.22345
1774.87216,1.22816
1772.81076,1.23295
1770.74935,1.23187
1768.68794,1.22813
1766.62653,1.22576
1764.56512,1.22643
1762.50372,1.22936
1760.44231,1.23006
1758.38090,1.23013
1756.31949,1.23068
1754.25809,1.23226
1752.19668,1.23794
1750.13527,1.24300
1748.07386,1.24184
1746.01245,1.23977
1743.95105,1.23965
1741.88964,1.24009
1739.82823,1.23999
1737.76682,1.24108
1735.70541,1.24670
1733.64401,1.25058
1731.58260,1.24589
1729.52119,1.24117
1727.45978,1.23887
1725.39838,1.23952
1723.33697,1.24166
1721.27556,1.24514
1719.21415,1.25307
1717.15274,1.25984
1715.09134,1.25577
1713.02993,1.24980
1710.96852,1.24792
1708.90711,1.24980
1706.84570,1.25358
1704.78430,1.25592
1702.72289,1.25854
1700.66148,1.26275
1698.60007,1.26316
1696.53867,1.25973
1694.47726,1.25365
1692.41585,1.25144
1690.35444,1.25490
1688.29303,1.25935
1686.23163,1.26483
1684.17022,1.26789
1682.10881,1.26208
1680.04740,1.25785
1677.98599,1.25780
1675.92459,1.25942
1673.86318,1.26042
1671.80177,1.26280
1669.74036,1.26412
1667.67896,1.25949
1665.61755,1.25735
1663.55614,1.25926
1661.49473,1.25838
1659.43332,1.25644
1657.37192,1.25949
1655.31051,1.26778
1653.24910,1.27142
1651.18769,1.26473
1649.12628,1.26561
1647.06488,1.26789
1645.00347,1.26218
1642.94206,1.25831
1640.88065,1.26004
1638.81925,1.26531
1636.75784,1.27013
1634.69643,1.26591
1632.63502,1.25997
1630.57361,1.25996
1628.51221,1.26227
1626.45080,1.26357
1624.38939,1.26437
1622.32798,1.26354
1620.26657,1.26288
1618.20517,1.26528
1616.14376,1.26552
1614.08235,1.26256
1612.02094,1.26251
1609.95954,1.26436
1607.89813,1.26513
1605.83672,1.26494
1603.77531,1.26513
1601.71390,1.26497
1599.65250,1.26423
1597.59109,1.26463
1595.52968,1.26616
1593.46827,1.26683
1591.40686,1.26646
1589.34546,1.26623
1587.28405,1.26643
1585.22264,1.26702
1583.16123,1.26789
1581.09983,1.26949
1579.03842,1.27347
1576.97701,1.27738
1574.91560,1.27552
1572.85419,1.27446
1570.79279,1.27743
1568.73138,1.27842
1566.66997,1.27736
1564.60856,1.27815
1562.54715,1.28219
1560.48575,1.29093
1558.42434,1.29397
1556.36293,1.28704
1554.30152,1.28507
1552.24012,1.28580
1550.17871,1.28640
1548.11730,1.28659
1546.05589,1.29087
1543.99448,1.29966
1541.93308,1.30655
1539.87167,1.30247
1537.81026,1.29291
1535.74885,1.29200
1533.68744,1.29433
1531.62604,1.29328
1529.56463,1.29419
1527.50322,1.29895
1525.44181,1.30303
1523.38041,1.30602
1521.31900,1.30620
1519.25759,1.30350
1517.19618,1.30210
1515.13477,1.29953
1513.07337,1.29894
1511.01196,1.30492
1508.95055,1.31536
1506.88914,1.31551
1504.82773,1.30068
1502.76633,1.29557
1500.70492,1.29836
1498.64351,1.30237
1496.58210,1.30235
1494.52070,1.30025
1492.45929,1.30346
1490.39788,1.31012
1488.33647,1.30969
1486.27506,1.30337
1484.21366,1.30046
1482.15225,1.30127
1480.09084,1.30286
1478.02943,1.30570
1475.96802,1.31111
1473.90662,1.31537
1471.84521,1.31129
1469.78380,1.30511
1467.72239,1.30525
1465.66099,1.30765
1463.59958,1.30711
1461.53817,1.30902
1459.47676,1.31767
1457.41535,1.32450
1455.35395,1.31745
1453.29254,1.31109
1451.23113,1.31057
1449.16972,1.31227
1447.10831,1.31233
1445.04691,1.31058
1442.98550,1.31025
1440.92409,1.31262
1438.86268,1.31740
1436.80128,1.32065
1434.73987,1.31837
1432.67846,1.31737
1430.61705,1.31902
1428.55564,1.31904
1426.49424,1.31939
1424.43283,1.32172
1422.37142,1.32440
1420.31001,1.32851
1418.24860,1.32979
1416.18720,1.32551
1414.12579,1.32320
1412.06438,1.32401
1410.00297,1.32510
1407.94157,1.32604
1405.88016,1.32730
1403.81875,1.32753
1401.75734,1.32846
1399.69593,1.33183
1397.63453,1.33530
1395.57312,1.33626
1393.51171,1.33322
1391.45030,1.33090
1389.38889,1.33341
1387.32749,1.33606
1385.26608,1.33417
1383.20467,1.33225
1381.14326,1.33321
1379.08186,1.33569
1377.02045,1.33909
1374.95904,1.34213
1372.89763,1.34193
1370.83622,1.34090
1368.77482,1.34150
1366.71341,1.34277
1364.65200,1.34616
1362.59059,1.34937
1360.52918,1.34787
1358.46778,1.34579
1356.40637,1.34620
1354.34496,1.34711
1352.28355,1.34770
1350.22215,1.34867
1348.16074,1.34964
1346.09933,1.35066
1344.03792,1.35299
1341.97651,1.35785
1339.91511,1.36210
1337.85370,1.36055
1335.79229,1.35691
1333.73088,1.35641
1331.66947,1.35802
1329.60807,1.35954
1327.54666,1.36047
1325.48525,1.36115
1323.42384,1.36256
1321.36244,1.36554
1319.30103,1.36851
1317.23962,1.36945
1315.17821,1.36995
1313.11680,1.37086
1311.05540,1.37118
1308.99399,1.37164
1306.93258,1.37247
1304.87117,1.37362
1302.80976,1.37564
1300.74836,1.37740
1298.68695,1.37835
1296.62554,1.37946
1294.56413,1.38062
1292.50273,1.38183
1290.44132,1.38382
1288.37991,1.38595
1286.31850,1.38735
1284.25709,1.38860
1282.19569,1.38984
1280.13428,1.39087
1278.07287,1.39226
1276.01146,1.39430
1273.95005,1.39695
1271.88865,1.39975
1269.82724,1.40189
1267.76583,1.40340
1265.70442,1.40462
1263.64302,1.40585
1261.58161,1.40776
1259.52020,1.40952
1257.45879,1.40987
1255.39738,1.41022
1253.33598,1.41203
1251.27457,1.41435
1249.21316,1.41622
1247.15175,1.41798
1245.09034,1.42003
1243.02894,1.42211
1240.96753,1.42368
1238.90612,1.42480
1236.84471,1.42565
1234.78331,1.42648
1232.72190,1.42770
1230.66049,1.42990
1228.59908,1.43315
1226.53767,1.43633
1224.47627,1.43858
1222.41486,1.44052
1220.35345,1.44302
1218.29204,1.44516
1216.23063,1.44643
1214.16923,1.44814
1212.10782,1.45056
1210.04641,1.45281
1207.98500,1.45439
1205.92360,1.45549
1203.86219,1.45650
1201.80078,1.45779
1199.73937,1.45976
1197.67796,1.46266
1195.61656,1.46557
1193.55515,1.46764
1191.49374,1.46935
1189.43233,1.47149
1187.37092,1.47439
1185.30952,1.47740
1183.24811,1.47984
1181.18670,1.48192
1179.12529,1.48391
1177.06389,1.48608
1175.00248,1.48844
1172.94107,1.49018
1170.87966,1.49136
1168.81825,1.49285
1166.75685,1.49499
1164.69544,1.49777
1162.63403,1.50067
1160.57262,1.50314
1158.51121,1.50543
1156.44981,1.50830
1154.38840,1.51113
1152.32699,1.51300
1150.26558,1.51484
1148.20418,1.51725
1146.14277,1.51946
1144.08136,1.52139
1142.01995,1.52335
1139.95854,1.52558
1137.89714,1.52811
1135.83573,1.53022
1133.77432,1.53242
1131.71291,1.53508
1129.65150,1.53711
1127.59010,1.53881
1125.52869,1.54149
1123.46728,1.54423
1121.40587,1.54596
1119.34447,1.54850
1117.28306,1.55260
1115.22165,1.55701
1113.16024,1.56145
1111.09883,1.56537
1109.03743,1.56826
1106.97602,1.57117
1104.91461,1.57429
1102.85320,1.57730
1100.79179,1.58109
1098.73039,1.58597
1096.66898,1.59027
1094.60757,1.59212
1092.54616,1.59237
1090.48476,1.59372
1088.42335,1.59774
1086.36194,1.60276
1084.30053,1.60609
1082.23912,1.60822
1080.17772,1.61199
1078.11631,1.61696
1076.05490,1.62052
1073.99349,1.62324
1071.93208,1.62654
1069.87068,1.63000
1067.80927,1.63360
1065.74786,1.63689
1063.68645,1.63964
1061.62505,1.64402
1059.56364,1.64859
1057.50223,1.65020
1055.44082,1.65159
1053.37941,1.65560
1051.31801,1.66047
1049.25660,1.66502
1047.19519,1.67131
1045.13378,1.67907
1043.07238,1.68546
1041.01097,1.69051
1038.94956,1.69604
1036.88815,1.70119
1034.82674,1.70459
1032.76534,1.70865
1030.70393,1.71492
1028.64252,1.72200
1026.58111,1.72834
1024.51970,1.73282
1022.45830,1.73788
1020.39689,1.74486
1018.33548,1.75144
1016.27407,1.75735
1014.21267,1.76440
1012.15126,1.77375
1010.08985,1.78247
1008.02844,1.78760
1005.96703,1.79377
1003.90563,1.80385
1001.84422,1.81318
999.78281,1.82055
997.72140,1.82837
995.65999,1.83765
993.59859,1.84771
991.53718,1.85688
989.47577,1.86525
987.41436,1.87451
985.35296,1.88463
983.29155,1.89336
981.23014,1.90124
979.16873,1.91013
977.10732,1.92181
975.04592,1.93612
972.98451,1.94856
970.92310,1.95864
968.86169,1.96993
966.80028,1.98146
964.73888,1.99273
962.67747,2.00775
960.61606,2.02424
958.55465,2.03598
956.49325,2.04632
954.43184,2.05912
952.37043,2.07190
950.30902,2.08441
948.24761,2.09523
946.18621,2.10420
944.12480,2.11642
942.06339,2.13260
940.00198,2.15161
937.94057,2.17371
935.87917,2.19546
933.81776,2.21406
931.75635,2.23300
929.69494,2.25704
927.63354,2.27985
925.57213,2.29656
923.51072,2.31151
921.44931,2.33107
919.38790,2.35762
917.32650,2.37961
915.26509,2.39927
913.20368,2.42727
911.14227,2.44930
909.08086,2.46102
907.01946,2.47798
904.95805,2.50676
902.89664,2.53377
900.83523,2.54207
898.77383,2.53971
896.71242,2.54053
894.65101,2.54710
892.58960,2.56034
890.52819,2.58270
888.46679,2.59606
886.40538,2.58695
884.34397,2.58259
882.28256,2.58241
880.22115,2.55926
878.15975,2.52912
876.09834,2.51378
874.03693,2.49607
871.97552,2.45955
869.91412,2.42171
867.85271,2.39756
865.79130,2.36407
863.72989,2.30859
861.66848,2.25343
859.60708,2.21106
857.54567,2.16679
855.48426,2.11160
853.42285,2.05596
851.36144,2.00495
849.30004,1.95529
847.23863,1.90075
845.17722,1.84264
843.11581,1.78652
841.05441,1.73214
838.99300,1.67885
836.93159,1.62840
834.87018,1.58187
832.80877,1.53703
830.74737,1.49086
828.68596,1.44388
826.62455,1.39779
824.56314,1.35140
822.50173,1.30536
820.44033,1.26259
818.37892,1.22351
816.31751,1.18540
814.25610,1.14701
812.19470,1.10996
810.13329,1.07495
808.07188,1.04152
806.01047,1.00957
803.94906,0.97908
801.88766,0.95004
799.82625,0.92288
797.76484,0.89719
795.70343,0.87235
793.64202,0.84868
791.58062,0.82624
789.51921,0.80481
787.45780,0.78453
785.39639,0.76512
783.33499,0.74625
781.27358,0.72836
779.21217,0.71177
777.15076,0.69610
775.08935,0.68107
773.02795,0.66704
770.96654,0.65390
768.90513,0.64128
766.84372,0.62922
764.78231,0.61793
762.72091,0.60730
760.65950,0.59721
758.59809,0.58798
756.53668,0.57972
754.47528,0.57207
752.41387,0.56477
750.35246,0.55797
748.29105,0.55180
746.22964,0.54629
744.16824,0.54145
742.10683,0.53706
740.04542,0.53298
737.98401,0.52956
735.92260,0.52673
733.86120,0.52408
731.79979,0.52181
729.73838,0.51993
727.67697,0.51824
725.61557,0.51701
723.55416,0.51627
721.49275,0.51568
719.43134,0.51510
717.36993,0.51451
715.30853,0.51399
713.24712,0.51370
711.18571,0.51353
709.12430,0.51328
707.06289,0.51310
705.00149,0.51282
702.94008,0.51232
700.87867,0.51212
698.81726,0.51205
696.75586,0.51150
694.69445,0.51075
692.63304,0.51028
690.57163,0.51006
688.51022,0.50976
686.44882,0.50908
684.38741,0.50825
682.32600,0.50762
680.26459,0.50721
678.20318,0.50687
676.14178,0.50659
674.08037,0.50650
672.01896,0.50666
669.95755,0.50547
667.89615,0.50186
665.83474,0.50168
663.77333,0.50407
661.71192,0.50479
659.65051,0.50401
657.58911,0.50311
655.52770,0.50225
653.46629,0.50164
651.40488,0.50150
649.34347,0.50118
647.28207,0.50070
645.22066,0.50071
643.15925,0.50093
641.09784,0.50091
639.03644,0.50094
636.97503,0.50132
634.91362,0.50135
632.85221,0.50076
630.79080,0.50026
628.72940,0.50036
626.66799,0.50104
624.60658,0.50165
622.54517,0.50219
620.48376,0.50329
618.42236,0.50444
616.36095,0.50489
614.29954,0.50512
612.23813,0.50579
610.17673,0.50688
608.11532,0.50811
606.05391,0.50917
603.99250,0.51011
601.93109,0.51152
599.86969,0.51297
597.80828,0.51382
595.74687,0.51503
593.68546,0.51695
591.62405,0.51832
589.56265,0.51861
587.50124,0.51899
585.43983,0.51988
583.37842,0.52100
581.31702,0.52222
579.25561,0.52295
577.19420,0.52311
575.13279,0.52279
573.07138,0.52225
571.00998,0.52209
568.94857,0.52199
566.88716,0.52122
564.82575,0.52026
562.76434,0.51981
560.70294,0.51945
558.64153,0.51890
556.58012,0.51787
554.51871,0.51626
552.45731,0.51505
550.39590,0.51419
548.33449,0.51302
546.27308,0.51178
544.21167,0.51024
542.15027,0.50839
540.08886,0.50709
538.02745,0.50648
535.96604,0.50599
533.90463,0.50506
531.84323,0.50377
529.78182,0.50344
527.72041,0.50507
525.65900,0.50627
523.59760,0.50556
521.53619,0.50647
519.47478,0.51008
517.41337,0.51243
515.35196,0.51219
513.29056,0.51264
511.22915,0.51544
509.16774,0.52025
507.10633,0.52622
505.04492,0.53327
502.98352,0.54232
500.92211,0.55084
498.86070,0.55768
496.79929,0.56647
494.73789,0.57790
492.67648,0.59000
490.61507,0.60103
488.55366,0.61139
486.49225,0.62249
484.43085,0.63292
482.36944,0.64102
480.30803,0.64881
478.24662,0.65838
476.18521,0.66853
474.12381,0.67828
472.06240,0.68716
470.00099,0.69467
467.93958,0.70196
465.87818,0.70956
463.81677,0.71707
461.75536,0.72469
459.69395,0.73398
457.63254,0.74240
455.57114,0.74445
453.50973,0.74415
451.44832,0.74303
449.38691,0.73895
447.32550,0.73248
445.26410,0.72034
443.20269,0.69877
441.14128,0.67227
439.07987,0.65000
437.01847,0.63127
434.95706,0.61142
432.89565,0.59177
430.83424,0.57383
428.77283,0.55896
426.71143,0.54940
424.65002,0.54296
422.58861,0.53852
420.52720,0.53896
418.46579,0.53589
416.40439,0.52323
414.34298,0.51378
412.28157,0.50918
410.22016,0.50664
408.15876,0.50523
406.09735,0.50403
404.03594,0.50455
401.97453,0.51127
399.91312,0.52560
