3997.06983,1.15549
3995.00842,1.15565
3992.94702,1.15550
3990.88561,1.15562
3988.82420,1.15565
3986.76279,1.15469
3984.70139,1.15387
3982.63998,1.15463
3980.57857,1.15584
3978.51716,1.15669
3976.45575,1.15770
3974.39435,1.15828
3972.33294,1.15848
3970.27153,1.15854
3968.21012,1.15750
3966.14871,1.15616
3964.08731,1.15593
3962.02590,1.15627
3959.96449,1.15612
3957.90308,1.15599
3955.84168,1.15661
3953.78027,1.15736
3951.71886,1.15787
3949.65745,1.15877
3947.59604,1.15941
3945.53464,1.15915
3943.47323,1.15872
3941.41182,1.15762
3939.35041,1.15609
3937.28900,1.15554
3935.22760,1.15661
3933.16619,1.15891
3931.10478,1.15985
3929.04337,1.15847
3926.98197,1.15769
3924.92056,1.15829
3922.85915,1.15844
3920.79774,1.15843
3918.73633,1.15924
3916.67493,1.15972
3914.61352,1.15866
3912.55211,1.15754
3910.49070,1.15805
3908.42929,1.16025
3906.36789,1.16323
3904.30648,1.16555
3902.24507,1.16621
3900.18366,1.16483
3898.12226,1.16201
3896.06085,1.16034
3893.99944,1.16117
3891.93803,1.16281
3889.87662,1.16290
3887.81522,1.16379
3885.75381,1.16588
3883.69240,1.16581
3881.63099,1.16514
3879.56958,1.16387
3877.50818,1.16203
3875.44677,1.16268
3873.38536,1.16434
3871.32395,1.16553
3869.26255,1.16606
3867.20114,1.16598
3865.13973,1.16711
3863.07832,1.16726
3861.01691,1.16542
3858.95551,1.16557
3856.89410,1.16985
3854.83269,1.17597
3852.77128,1.17477
3850.70987,1.16796
3848.64847,1.16529
3846.58706,1.16595
3844.52565,1.16793
3842.46424,1.17029
3840.40284,1.17300
3838.34143,1.17413
3836.28002,1.17195
3834.21861,1.17014
3832.15720,1.16904
3830.09580,1.16693
3828.03439,1.16655
3825.97298,1.16922
3823.91157,1.17258
3821.85016,1.17517
3819.78876,1.17481
3817.72735,1.17312
3815.66594,1.17142
3813.60453,1.16940
3811.54313,1.16975
3809.48172,1.17285
3807.42031,1.17684
3805.35890,1.17961
3803.29749,1.18178
3801.23609,1.18224
3799.17468,1.18037
3797.11327,1.17869
3795.05186,1.17664
3792.99045,1.17559
3790.92905,1.17651
3788.86764,1.17806
3786.80623,1.17949
3784.74482,1.18040
3782.68342,1.18121
3780.62201,1.18261
3778.56060,1.18266
3776.49919,1.18177
3774.43778,1.18280
3772.37638,1.18549
3770.31497,1.18797
3768.25356,1.18891
3766.19215,1.18931
3764.13074,1.18978
3762.06934,1.19113
3760.00793,1.19378
3757.94652,1.19603
3755.88511,1.19819
3753.82371,1.20131
3751.76230,1.20449
3749.70089,1.20619
3747.63948,1.20767
3745.57807,1.21047
3743.51667,1.21034
3741.45526,1.20784
3739.39385,1.20900
3737.33244,1.21446
3735.27103,1.22018
3733.20963,1.22067
3731.14822,1.21963
3729.08681,1.22243
3727.02540,1.22870
3724.96400,1.23487
3722.90259,1.23920
3720.84118,1.24382
3718.77977,1.24937
3716.71836,1.25568
3714.65696,1.26394
3712.59555,1.27526
3710.53414,1.28595
3708.47273,1.29284
3706.41132,1.29958
3704.34992,1.30811
3702.28851,1.31768
3700.22710,1.32397
3698.16569,1.32646
3696.10429,1.32818
3694.04288,1.32933
3691.98147,1.32962
3689.92006,1.32815
3687.85865,1.32285
3685.79725,1.31709
3683.73584,1.31414
3681.67443,1.31403
3679.61302,1.31606
3677.55161,1.32028
3675.49021,1.32409
3673.42880,1.32291
3671.36739,1.32264
3669.30598,1.32412
3667.24458,1.32357
3665.18317,1.32356
3663.12176,1.32552
3661.06035,1.32911
3658.99894,1.33355
3656.93754,1.33754
3654.87613,1.34049
3652.81472,1.34496
3650.75331,1.35347
3648.69190,1.36087
3646.63050,1.36008
3644.56909,1.35840
3642.50768,1.36068
3640.44627,1.36516
3638.38487,1.36871
3636.32346,1.37110
3634.26205,1.37317
3632.20064,1.37602
3630.13923,1.38293
3628.07783,1.39034
3626.01642,1.38995
3623.95501,1.38886
3621.89360,1.39209
3619.83219,1.39923
3617.77079,1.40488
3615.70938,1.40649
3613.64797,1.40804
3611.58656,1.41009
3609.52516,1.41236
3607.46375,1.41433
3605.40234,1.41444
3603.34093,1.41606
3601.27952,1.42081
3599.21812,1.42391
3597.15671,1.42491
3595.09530,1.42693
3593.03389,1.42858
3590.97248,1.42965
3588.91108,1.43284
3586.84967,1.43619
3584.78826,1.43490
3582.72685,1.43210
3580.66545,1.43248
3578.60404,1.43605
3576.54263,1.43948
3574.48122,1.44109
3572.41981,1.44195
3570.35841,1.44495
3568.29700,1.45093
3566.23559,1.45506
3564.17418,1.45345
3562.11277,1.45034
3560.05137,1.44913
3557.98996,1.44879
3555.92855,1.44896
3553.86714,1.45096
3551.80574,1.45261
3549.74433,1.45237
3547.68292,1.45283
3545.62151,1.45351
3543.56010,1.45182
3541.49870,1.44953
3539.43729,1.44951
3537.37588,1.45156
3535.31447,1.45400
3533.25306,1.45649
3531.19166,1.45880
3529.13025,1.45993
3527.06884,1.45981
3525.00743,1.45904
3522.94603,1.45860
3520.88462,1.45842
3518.82321,1.45761
3516.76180,1.45665
3514.70039,1.45620
3512.63899,1.45721
3510.57758,1.45919
3508.51617,1.46038
3506.45476,1.46075
3504.39335,1.46098
3502.33195,1.46134
3500.27054,1.46101
3498.20913,1.46008
3496.14772,1.46014
3494.08632,1.46122
3492.02491,1.46180
3489.96350,1.46183
3487.90209,1.46229
3485.84068,1.46322
3483.77928,1.46466
3481.71787,1.46543
3479.65646,1.46404
3477.59505,1.46243
3475.53364,1.46270
3473.47224,1.46395
3471.41083,1.46395
3469.34942,1.46263
3467.28801,1.46232
3465.22661,1.46366
3463.16520,1.46478
3461.10379,1.46471
3459.04238,1.46445
3456.98097,1.46414
3454.91957,1.46399
3452.85816,1.46454
3450.79675,1.46561
3448.73534,1.46756
3446.67393,1.46912
3444.61253,1.46869
3442.55112,1.46770
3440.48971,1.46702
3438.42830,1.46529
3436.36690,1.46285
3434.30549,1.46284
3432.24408,1.46436
3430.18267,1.46397
3428.12126,1.46347
3426.05986,1.46399
3423.99845,1.46422
3421.93704,1.46399
3419.87563,1.46282
3417.81422,1.46213
3415.75282,1.46259
3413.69141,1.46266
3411.63000,1.46230
3409.56859,1.46228
3407.50719,1.46286
3405.44578,1.46319
3403.38437,1.46230
3401.32296,1.46115
3399.26155,1.46144
3397.20015,1.46266
3395.13874,1.46356
3393.07733,1.46333
3391.01592,1.46207
3388.95451,1.46192
3386.89311,1.46363
3384.83170,1.46596
3382.77029,1.46717
3380.70888,1.46623
3378.64748,1.46434
3376.58607,1.46320
3374.52466,1.46258
3372.46325,1.46113
3370.40184,1.45913
3368.34044,1.45823
3366.27903,1.45902
3364.21762,1.46092
3362.15621,1.46221
3360.09480,1.46207
3358.03340,1.46259
3355.97199,1.46323
3353.91058,1.46150
3351.84917,1.45922
3349.78777,1.45859
3347.72636,1.45890
3345.66495,1.45903
3343.60354,1.45888
3341.54213,1.45837
3339.48073,1.45730
3337.41932,1.45625
3335.35791,1.45598
3333.29650,1.45654
3331.23509,1.45694
3329.17369,1.45638
3327.11228,1.45532
3325.05087,1.45456
3322.98946,1.45428
3320.92806,1.45385
3318.86665,1.45246
3316.80524,1.45112
3314.74383,1.45151
3312.68242,1.45259
3310.62102,1.45145
3308.55961,1.44817
3306.49820,1.44654
3304.43679,1.44755
3302.37538,1.44853
3300.31398,1.44865
3298.25257,1.44898
3296.19116,1.44872
3294.12975,1.44680
3292.06835,1.44547
3290.00694,1.44588
3287.94553,1.44577
3285.88412,1.44552
3283.82271,1.44655
3281.76131,1.44679
3279.69990,1.44540
3277.63849,1.44397
3275.57708,1.44328
3273.51567,1.44261
3271.45427,1.44135
3269.39286,1.44064
3267.33145,1.44128
3265.27004,1.44244
3263.20864,1.44326
3261.14723,1.44357
3259.08582,1.44331
3257.02441,1.44252
3254.96300,1.44218
3252.90160,1.44267
3250.84019,1.44264
3248.77878,1.44137
3246.71737,1.43974
3244.65596,1.43881
3242.59456,1.43904
3240.53315,1.43960
3238.47174,1.43932
3236.41033,1.43854
3234.34893,1.43799
3232.28752,1.43757
3230.22611,1.43765
3228.16470,1.43877
3226.10329,1.43936
3224.04189,1.43786
3221.98048,1.43591
3219.91907,1.43506
3217.85766,1.43531
3215.79625,1.43665
3213.73485,1.43730
3211.67344,1.43593
3209.61203,1.43422
3207.55062,1.43357
3205.48922,1.43346
3203.42781,1.43287
3201.36640,1.43197
3199.30499,1.43174
3197.24358,1.43191
3195.18218,1.43125
3193.12077,1.42984
3191.05936,1.42909
3188.99795,1.42960
3186.93654,1.42997
3184.87514,1.42886
3182.81373,1.42693
3180.75232,1.42558
3178.69091,1.42470
3176.62951,1.42430
3174.56810,1.42476
3172.50669,1.42480
3170.44528,1.42386
3168.38387,1.42270
3166.32247,1.42176
3164.26106,1.42136
3162.19965,1.42121
3160.13824,1.42091
3158.07683,1.42016
3156.01543,1.41901
3153.95402,1.41878
3151.89261,1.41924
3149.83120,1.41892
3147.76980,1.41880
3145.70839,1.41904
3143.64698,1.41816
3141.58557,1.41667
3139.52416,1.41548
3137.46276,1.41510
3135.40135,1.41587
3133.33994,1.41609
3131.27853,1.41483
3129.21713,1.41327
3127.15572,1.41231
3125.09431,1.41212
3123.03290,1.41187
3120.97149,1.41061
3118.91009,1.40841
3116.84868,1.40672
3114.78727,1.40651
3112.72586,1.40651
3110.66445,1.40601
3108.60305,1.40588
3106.54164,1.40593
3104.48023,1.40540
3102.41882,1.40463
3100.35742,1.40376
3098.29601,1.40252
3096.23460,1.40130
3094.17319,1.40045
3092.11178,1.39969
3090.05038,1.39909
3087.98897,1.39903
3085.92756,1.39932
3083.86615,1.39929
3081.80474,1.39856
3079.74334,1.39746
3077.68193,1.39686
3075.62052,1.39666
3073.55911,1.39631
3071.49771,1.39548
3069.43630,1.39423
3067.37489,1.39281
3065.31348,1.39159
3063.25207,1.39126
3061.19067,1.39086
3059.12926,1.38969
3057.06785,1.38897
3055.00644,1.38909
3052.94503,1.38918
3050.88363,1.38903
3048.82222,1.38873
3046.76081,1.38753
3044.69940,1.38560
3042.63800,1.38430
3040.57659,1.38404
3038.51518,1.38397
3036.45377,1.38378
3034.39236,1.38337
3032.33096,1.38212
3030.26955,1.38086
3028.20814,1.38045
3026.14673,1.37966
3024.08532,1.37815
3022.02392,1.37708
3019.96251,1.37616
3017.90110,1.37526
3015.83969,1.37489
3013.77829,1.37481
3011.71688,1.37467
3009.65547,1.37360
3007.59406,1.37149
3005.53265,1.36996
3003.47125,1.36964
3001.40984,1.36934
2999.34843,1.36872
2997.28702,1.36861
2995.22561,1.36869
2993.16421,1.36795
2991.10280,1.36699
2989.04139,1.36634
2986.97998,1.36545
2984.91858,1.36491
2982.85717,1.36455
2980.79576,1.36388
2978.73435,1.36393
2976.67294,1.36416
2974.61154,1.36377
2972.55013,1.36317
2970.48872,1.36212
2968.42731,1.36083
2966.36590,1.35946
2964.30450,1.35778
2962.24309,1.35645
2960.18168,1.35620
2958.12027,1.35628
2956.05887,1.35561
2953.99746,1.35512
2951.93605,1.35504
2949.87464,1.35411
2947.81323,1.35288
2945.75183,1.35224
2943.69042,1.35191
2941.62901,1.35139
2939.56760,1.35081
2937.50619,1.35067
2935.44479,1.35110
2933.38338,1.35109
2931.32197,1.34979
2929.26056,1.34792
2927.19916,1.34627
2925.13775,1.34531
2923.07634,1.34478
2921.01493,1.34385
2918.95352,1.34327
2916.89212,1.34372
2914.83071,1.34426
2912.76930,1.34406
2910.70789,1.34317
2908.64648,1.34200
2906.58508,1.34095
2904.52367,1.34026
2902.46226,1.33970
2900.40085,1.33907
2898.33945,1.33871
2896.27804,1.33857
2894.21663,1.33805
2892.15522,1.33698
2890.09381,1.33595
2888.03241,1.33552
2885.97100,1.33524
2883.90959,1.33458
2881.84818,1.33384
2879.78677,1.33298
2877.72537,1.33165
2875.66396,1.33004
2873.60255,1.32892
2871.54114,1.32859
2869.47974,1.32839
2867.41833,1.32757
2865.35692,1.32614
2863.29551,1.32517
2861.23410,1.32475
2859.17270,1.32391
2857.11129,1.32288
2855.04988,1.32207
2852.98847,1.32143
2850.92706,1.32128
2848.86566,1.32081
2846.80425,1.31926
2844.74284,1.31740
2842.68143,1.31575
2840.62003,1.31415
2838.55862,1.31277
2836.49721,1.31190
2834.43580,1.31125
2832.37439,1.31055
2830.31299,1.30965
2828.25158,1.30835
2826.19017,1.30681
2824.12876,1.30532
2822.06735,1.30398
2820.00595,1.30297
2817.94454,1.30234
2815.88313,1.30138
2813.82172,1.29998
2811.76032,1.29894
2809.69891,1.29802
2807.63750,1.29693
2805.57609,1.29618
2803.51468,1.29550
2801.45328,1.29436
2799.39187,1.29310
2797.33046,1.29176
2795.26905,1.29005
2793.20764,1.28850
2791.14624,1.28754
2789.08483,1.28698
2787.02342,1.28625
2784.96201,1.28486
2782.90061,1.28353
2780.83920,1.28291
2778.77779,1.28206
2776.71638,1.28055
2774.65497,1.27913
2772.59357,1.27816
2770.53216,1.27776
2768.47075,1.27744
2766.40934,1.27625
2764.34793,1.27454
2762.28653,1.27310
2760.22512,1.27220
2758.16371,1.27145
2756.10230,1.27042
2754.04090,1.26941
2751.97949,1.26853
2749.91808,1.26723
2747.85667,1.26569
2745.79526,1.26454
2743.73386,1.26395
2741.67245,1.26328
2739.61104,1.26201
2737.54963,1.26081
2735.48822,1.26009
2733.42682,1.25915
2731.36541,1.25767
2729.30400,1.25636
2727.24259,1.25576
2725.18119,1.25522
2723.11978,1.25418
2721.05837,1.25316
2718.99696,1.25249
2716.93555,1.25161
2714.87415,1.25027
2712.81274,1.24902
2710.75133,1.24815
2708.68992,1.24718
2706.62851,1.24586
2704.56711,1.24474
2702.50570,1.24386
2700.44429,1.24287
2698.38288,1.24174
2696.32148,1.24051
2694.26007,1.23927
2692.19866,1.23807
2690.13725,1.23708
2688.07584,1.23662
2686.01444,1.23627
2683.95303,1.23551
2681.89162,1.23429
2679.83021,1.23307
2677.76880,1.23211
2675.70740,1.23107
2673.64599,1.23016
2671.58458,1.22942
2669.52317,1.22840
2667.46177,1.22718
2665.40036,1.22621
2663.33895,1.22539
2661.27754,1.22420
2659.21613,1.22310
2657.15473,1.22242
2655.09332,1.22144
2653.03191,1.22011
2650.97050,1.21905
2648.90909,1.21832
2646.84769,1.21762
2644.78628,1.21704
2642.72487,1.21653
2640.66346,1.21579
2638.60206,1.21490
2636.54065,1.21424
2634.47924,1.21371
2632.41783,1.21279
2630.35642,1.21151
2628.29502,1.21048
2626.23361,1.21018
2624.17220,1.20999
2622.11079,1.20931
2620.04938,1.20842
2617.98798,1.20722
2615.92657,1.20569
2613.86516,1.20462
2611.80375,1.20419
2609.74235,1.20372
2607.68094,1.20301
2605.61953,1.20212
2603.55812,1.20107
2601.49671,1.20033
2599.43531,1.19988
2597.37390,1.19899
2595.31249,1.19746
2593.25108,1.19615
2591.18967,1.19570
2589.12827,1.19532
2587.06686,1.19429
2585.00545,1.19320
2582.94404,1.19236
2580.88264,1.19138
2578.82123,1.19061
2576.75982,1.18998
2574.69841,1.18909
2572.63700,1.18831
2570.57560,1.18751
2568.51419,1.18640
2566.45278,1.18550
2564.39137,1.18490
2562.32996,1.18433
2560.26856,1.18356
2558.20715,1.18215
2556.14574,1.18049
2554.08433,1.17933
2552.02293,1.17864
2549.96152,1.17797
2547.90011,1.17712
2545.83870,1.17607
2543.77729,1.17501
2541.71589,1.17384
2539.65448,1.17240
2537.59307,1.17107
2535.53166,1.16986
2533.47025,1.16845
2531.40885,1.16708
2529.34744,1.16592
2527.28603,1.16501
2525.22462,1.16434
2523.16322,1.16327
2521.10181,1.16166
2519.04040,1.16009
2516.97899,1.15868
2514.91758,1.15755
2512.85618,1.15677
2510.79477,1.15597
2508.73336,1.15512
2506.67195,1.15431
2504.61054,1.15340
2502.54914,1.15243
2500.48773,1.15153
2498.42632,1.15063
2496.36491,1.14957
2494.30351,1.14850
2492.24210,1.14742
2490.18069,1.14616
2488.11928,1.14491
2486.05787,1.14424
2483.99647,1.14407
2481.93506,1.14340
2479.87365,1.14226
2477.81224,1.14160
2475.75083,1.14105
2473.68943,1.13994
2471.62802,1.13857
2469.56661,1.13749
2467.50520,1.13668
2465.44380,1.13572
2463.38239,1.13456
2461.32098,1.13366
2459.25957,1.13304
2457.19816,1.13239
2455.13676,1.13164
2453.07535,1.13087
2451.01394,1.12994
2448.95253,1.12886
2446.89112,1.12817
2444.82972,1.12771
2442.76831,1.12692
2440.70690,1.12603
2438.64549,1.12511
2436.58409,1.12380
2434.52268,1.12222
2432.46127,1.12084
2430.39986,1.11979
2428.33845,1.11890
2426.27705,1.11804
2424.21564,1.11722
2422.15423,1.11634
2420.09282,1.11540
2418.03141,1.11459
2415.97001,1.11381
2413.90860,1.11293
2411.84719,1.11190
2409.78578,1.11069
2407.72438,1.10953
2405.66297,1.10863
2403.60156,1.10775
2401.54015,1.10685
2399.47874,1.10596
2397.41734,1.10475
2395.35593,1.10328
2393.29452,1.10209
2391.23311,1.10131
2389.17170,1.10054
2387.11030,1.09972
2385.04889,1.09893
2382.98748,1.09815
2380.92607,1.09754
2378.86467,1.09688
2376.80326,1.09584
2374.74185,1.09453
2372.68044,1.09293
2370.61903,1.09105
2368.55763,1.08973
2366.49622,1.08914
2364.43481,1.08807
2362.37340,1.08559
2360.31199,1.08274
2358.25059,1.08170
2356.18918,1.08185
2354.12777,1.08213
2352.06636,1.08193
2350.00496,1.08054
2347.94355,1.07896
2345.88214,1.07756
2343.82073,1.07561
2341.75932,1.07325
2339.69792,1.07089
2337.63651,1.06851
2335.57510,1.06684
2333.51369,1.06641
2331.45228,1.06635
2329.39088,1.06585
2327.32947,1.06502
2325.26806,1.06421
2323.20665,1.06344
2321.14525,1.06252
2319.08384,1.06154
2317.02243,1.06052
2314.96102,1.05918
2312.89961,1.05771
2310.83821,1.05656
2308.77680,1.05571
2306.71539,1.05480
2304.65398,1.05380
2302.59257,1.05267
2300.53117,1.05122
2298.46976,1.04963
2296.40835,1.04824
2294.34694,1.04707
2292.28554,1.04594
2290.22413,1.04478
2288.16272,1.04365
2286.10131,1.04254
2284.03990,1.04141
2281.97850,1.04029
2279.91709,1.03918
2277.85568,1.03793
2275.79427,1.03651
2273.73286,1.03507
2271.67146,1.03390
2269.61005,1.03303
2267.54864,1.03216
2265.48723,1.03124
2263.42583,1.03030
2261.36442,1.02915
2259.30301,1.02800
2257.24160,1.02706
2255.18019,1.02600
2253.11879,1.02476
2251.05738,1.02361
2248.99597,1.02247
2246.93456,1.02116
2244.87315,1.01975
2242.81175,1.01843
2240.75034,1.01739
2238.68893,1.01641
2236.62752,1.01511
2234.56612,1.01378
2232.50471,1.01277
2230.44330,1.01154
2228.38189,1.01008
2226.32048,1.00902
2224.25908,1.00818
2222.19767,1.00705
2220.13626,1.00576
2218.07485,1.00440
2216.01344,1.00310
2213.95204,1.00201
2211.89063,1.00083
2209.82922,0.99948
2207.76781,0.99828
2205.70641,0.99715
2203.64500,0.99589
2201.58359,0.99456
2199.52218,0.99312
2197.46077,0.99170
2195.39937,0.99054
2193.33796,0.98949
2191.27655,0.98835
2189.21514,0.98716
2187.15373,0.98599
2185.09233,0.98483
2183.03092,0.98380
2180.96951,0.98270
2178.90810,0.98134
2176.84670,0.97995
2174.78529,0.97869
2172.72388,0.97756
2170.66247,0.97651
2168.60106,0.97535
2166.53966,0.97408
2164.47825,0.97270
2162.41684,0.97131
2160.35543,0.97009
2158.29402,0.96893
2156.23262,0.96776
2154.17121,0.96649
2152.10980,0.96488
2150.04839,0.96305
2147.98699,0.96162
2145.92558,0.96057
2143.86417,0.95936
2141.80276,0.95801
2139.74135,0.95664
2137.67995,0.95538
2135.61854,0.95421
2133.55713,0.95298
2131.49572,0.95166
2129.43431,0.95028
2127.37291,0.94886
2125.31150,0.94742
2123.25009,0.94598
2121.18868,0.94437
2119.12728,0.94271
2117.06587,0.94141
2115.00446,0.94020
2112.94305,0.93853
2110.88164,0.93655
2108.82024,0.93475
2106.75883,0.93322
2104.69742,0.93169
2102.63601,0.92982
2100.57461,0.92768
2098.51320,0.92564
2096.45179,0.92383
2094.39038,0.92219
2092.32897,0.92043
2090.26757,0.91836
2088.20616,0.91605
2086.14475,0.91379
2084.08334,0.91190
2082.02193,0.91012
2079.96053,0.90798
2077.89912,0.90558
2075.83771,0.90329
2073.77630,0.90113
2071.71490,0.89879
2069.65349,0.89639
2067.59208,0.89420
2065.53067,0.89199
2063.46926,0.88942
2061.40786,0.88674
2059.34645,0.88438
2057.28504,0.88224
2055.22363,0.88008
2053.16222,0.87779
2051.10082,0.87548
2049.03941,0.87318
2046.97800,0.87088
2044.91659,0.86863
2042.85519,0.86639
2040.79378,0.86404
2038.73237,0.86151
2036.67096,0.85906
2034.60955,0.85677
2032.54815,0.85440
2030.48674,0.85199
2028.42533,0.84975
2026.36392,0.84752
2024.30251,0.84515
2022.24111,0.84281
2020.17970,0.84069
2018.11829,0.83871
2016.05688,0.83618
2013.99548,0.83325
2011.93407,0.83054
2009.87266,0.82809
2007.81125,0.82583
2005.74984,0.82346
2003.68844,0.82095
2001.62703,0.81858
1999.56562,0.81618
1997.50421,0.81348
1995.44280,0.81125
1993.38140,0.80975
1991.31999,0.80745
1989.25858,0.80418
1987.19717,0.80118
1985.13577,0.79851
1983.07436,0.79595
1981.01295,0.79349
1978.95154,0.79108
1976.89013,0.78861
1974.82873,0.78603
1972.76732,0.78345
1970.70591,0.78121
1968.64450,0.77940
1966.58309,0.77719
1964.52169,0.77418
1962.46028,0.77111
1960.39887,0.76834
1958.33746,0.76593
1956.27606,0.76382
1954.21465,0.76150
1952.15324,0.75886
1950.09183,0.75637
1948.03042,0.75419
1945.96902,0.75245
1943.90761,0.75100
1941.84620,0.74841
1939.78479,0.74468
1937.72338,0.74159
1935.66198,0.73922
1933.60057,0.73702
1931.53916,0.73477
1929.47775,0.73237
1927.41635,0.73018
1925.35494,0.72887
1923.29353,0.72762
1921.23212,0.72549
1919.17071,0.72327
1917.10931,0.72029
1915.04790,0.71666
1912.98649,0.71441
1910.92508,0.71329
1908.86367,0.71136
1906.80227,0.70830
1904.74086,0.70541
1902.67945,0.70302
1900.61804,0.70077
1898.55664,0.69882
1896.49523,0.69721
1894.43382,0.69531
1892.37241,0.69343
1890.31100,0.69187
1888.24960,0.68916
1886.18819,0.68604
1884.12678,0.68374
1882.06537,0.68156
1880.00396,0.67933
1877.94256,0.67719
1875.88115,0.67517
1873.81974,0.67360
1871.75833,0.67356
1869.69693,0.67428
1867.63552,0.67193
1865.57411,0.66702
1863.51270,0.66344
1861.45129,0.66143
1859.38989,0.65963
1857.32848,0.65766
1855.26707,0.65566
1853.20566,0.65373
1851.14425,0.65230
1849.08285,0.65173
1847.02144,0.65200
1844.96003,0.65183
1842.89862,0.64831
1840.83722,0.64401
1838.77581,0.64196
1836.71440,0.64048
1834.65299,0.63874
1832.59158,0.63859
1830.53018,0.63921
1828.46877,0.63726
1826.40736,0.63460
1824.34595,0.63209
1822.28454,0.62896
1820.22314,0.62687
1818.16173,0.62547
1816.10032,0.62369
1814.03891,0.62250
1811.97751,0.62209
1809.91610,0.62059
1807.85469,0.61805
1805.79328,0.61643
1803.73187,0.61644
1801.67047,0.61677
1799.60906,0.61526
1797.54765,0.61299
1795.48624,0.61256
1793.42483,0.61346
1791.36343,0.61152
1789.30202,0.60717
1787.24061,0.60504
1785.17920,0.60450
1783.11780,0.60374
1781.05639,0.60281
1778.99498,0.60129
1776.93357,0.60044
1774.87216,0.60186
1772.81076,0.60326
1770.74935,0.60081
1768.68794,0.59684
1766.62653,0.59388
1764.56512,0.59308
1762.50372,0.59377
1760.44231,0.59298
1758.38090,0.59164
1756.31949,0.59041
1754.25809,0.58974
1752.19668,0.59165
1750.13527,0.59342
1748.07386,0.59143
1746.01245,0.58869
1743.95105,0.58732
1741.88964,0.58674
1739.82823,0.58556
1737.76682,0.58465
1735.70541,0.58654
1733.64401,0.58742
1731.58260,0.58371
1729.52119,0.58080
1727.45978,0.57950
1725.39838,0.57985
1723.33697,0.58141
1721.27556,0.58418
1719.21415,0.58970
1717.15274,0.59442
1715.09134,0.59307
1713.02993,0.59115
1710.96852,0.59224
1708.90711,0.59608
1706.84570,0.60158
1704.78430,0.60636
1702.72289,0.61096
1700.66148,0.61768
1698.60007,0.62289
1696.53867,0.62566
1694.47726,0.62754
1692.41585,0.63079
1690.35444,0.63762
1688.29303,0.64581
1686.23163,0.65494
1684.17022,0.66536
1682.10881,0.67007
1680.04740,0.67336
1677.98599,0.67961
1675.92459,0.68832
1673.86318,0.69700
1671.80177,0.70506
1669.74036,0.71375
1667.67896,0.71959
1665.61755,0.72480
1663.55614,0.73276
1661.49473,0.74005
1659.43332,0.74553
1657.37192,0.75280
1655.31051,0.76312
1653.24910,0.77354
1651.18769,0.77646
1649.12628,0.78082
1647.06488,0.78773
1645.00347,0.78919
1642.94206,0.78911
1640.88065,0.79154
1638.81925,0.79524
1636.75784,0.79705
1634.69643,0.79051
1632.63502,0.78229
1630.57361,0.77774
1628.51221,0.77314
1626.45080,0.76731
1624.38939,0.76171
1622.32798,0.75510
1620.26657,0.75010
1618.20517,0.74844
1616.14376,0.74577
1614.08235,0.74254
1612.02094,0.74267
1609.95954,0.74503
1607.89813,0.74774
1605.83672,0.75098
1603.77531,0.75599
1601.71390,0.76301
1599.65250,0.77200
1597.59109,0.78443
1595.52968,0.80164
1593.46827,0.82301
1591.40686,0.84647
1589.34546,0.86947
1587.28405,0.88959
1585.22264,0.90726
1583.16123,0.92493
1581.09983,0.94400
1579.03842,0.96462
1576.97701,0.99070
1574.91560,1.02011
1572.85419,1.04232
1570.79279,1.06544
1568.73138,1.09250
1566.66997,1.11415
1564.60856,1.13196
1562.54715,1.14734
1560.48575,1.16322
1558.42434,1.18316
1556.36293,1.19106
1554.30152,1.19359
1552.24012,1.19549
1550.17871,1.19412
1548.11730,1.18992
1546.05589,1.18761
1543.99448,1.18765
1541.93308,1.18643
1539.87167,1.18317
1537.81026,1.18074
1535.74885,1.18409
1533.68744,1.19301
1531.62604,1.20191
1529.56463,1.20955
1527.50322,1.21931
1525.44181,1.22860
1523.38041,1.23556
1521.31900,1.24070
1519.25759,1.24249
1517.19618,1.24338
1515.13477,1.24356
1513.07337,1.24398
1511.01196,1.24678
1508.95055,1.25093
1506.88914,1.24765
1504.82773,1.23405
1502.76633,1.22522
1500.70492,1.21976
1498.64351,1.21310
1496.58210,1.20189
1494.52070,1.18938
1492.45929,1.18115
1490.39788,1.17336
1488.33647,1.15879
1486.27506,1.14100
1484.21366,1.12567
1482.15225,1.11145
1480.09084,1.09673
1478.02943,1.08303
1475.96802,1.06994
1473.90662,1.05364
1471.84521,1.03026
1469.78380,1.00929
1467.72239,0.99508
1465.66099,0.97986
1463.59958,0.96120
1461.53817,0.94746
1459.47676,0.93862
1457.41535,0.92343
1455.35395,0.90267
1453.29254,0.89060
1451.23113,0.88425
1449.16972,0.88122
1447.10831,0.88106
1445.04691,0.88428
1442.98550,0.89271
1440.92409,0.90584
1438.86268,0.92333
1436.80128,0.94870
1434.73987,0.97608
1432.67846,0.99999
1430.61705,1.02667
1428.55564,1.05401
1426.49424,1.07640
1424.43283,1.09407
1422.37142,1.10484
1420.31001,1.10775
1418.24860,1.10155
1416.18720,1.09023
1414.12579,1.08162
1412.06438,1.07603
1410.00297,1.07230
1407.94157,1.07073
1405.88016,1.07150
1403.81875,1.07295
1401.75734,1.07546
1399.69593,1.08046
1397.63453,1.08621
1395.57312,1.09117
1393.51171,1.09507
1391.45030,1.09878
1389.38889,1.10369
1387.32749,1.10627
1385.26608,1.10219
1383.20467,1.09442
1381.14326,1.08472
1379.08186,1.07223
1377.02045,1.05793
1374.95904,1.04078
1372.89763,1.01953
1370.83622,0.99906
1368.77482,0.98062
1366.71341,0.96367
1364.65200,0.94912
1362.59059,0.93368
1360.52918,0.91612
1358.46778,0.89948
1356.40637,0.88300
1354.34496,0.86439
1352.28355,0.84405
1350.22215,0.82295
1348.16074,0.80139
1346.09933,0.78008
1344.03792,0.76042
1341.97651,0.74352
1339.91511,0.72802
1337.85370,0.71253
1335.79229,0.69849
1333.73088,0.68534
1331.66947,0.67038
1329.60807,0.65219
1327.54666,0.63155
1325.48525,0.61046
1323.42384,0.59062
1321.36244,0.57278
1319.30103,0.55574
1317.23962,0.53808
1315.17821,0.51963
1313.11680,0.50009
1311.05540,0.47987
1308.99399,0.46054
1306.93258,0.44287
1304.87117,0.42715
1302.80976,0.41353
1300.74836,0.40189
1298.68695,0.39209
1296.62554,0.38373
1294.56413,0.37636
1292.50273,0.36954
1290.44132,0.36302
1288.37991,0.35648
1286.31850,0.34966
1284.25709,0.34290
1282.19569,0.33669
1280.13428,0.33109
1278.07287,0.32604
1276.01146,0.32178
1273.95005,0.31845
1271.88865,0.31585
1269.82724,0.31367
1267.76583,0.31190
1265.70442,0.31063
1263.64302,0.30981
1261.58161,0.30912
1259.52020,0.30822
1257.45879,0.30716
1255.39738,0.30625
1253.33598,0.30564
1251.27457,0.30528
1249.21316,0.30502
1247.15175,0.30491
1245.09034,0.30501
1243.02894,0.30510
1240.96753,0.30513
1238.90612,0.30527
1236.84471,0.30552
1234.78331,0.30575
1232.72190,0.30591
1230.66049,0.30608
1228.59908,0.30637
1226.53767,0.30673
1224.47627,0.30701
1222.41486,0.30723
1220.35345,0.30756
1218.29204,0.30799
1216.23063,0.30842
1214.16923,0.30899
1212.10782,0.30966
1210.04641,0.31038
1207.98500,0.31122
1205.92360,0.31211
1203.86219,0.31310
1201.80078,0.31429
1199.73937,0.31563
1197.67796,0.31700
1195.61656,0.31850
1193.55515,0.32032
1191.49374,0.32250
1189.43233,0.32495
1187.37092,0.32764
1185.30952,0.33063
1183.24811,0.33400
1181.18670,0.33771
1179.12529,0.34170
1177.06389,0.34607
1175.00248,0.35081
1172.94107,0.35578
1170.87966,0.36109
1168.81825,0.36683
1166.75685,0.37289
1164.69544,0.37928
1162.63403,0.38609
1160.57262,0.39328
1158.51121,0.40082
1156.44981,0.40867
1154.38840,0.41684
1152.32699,0.42537
1150.26558,0.43420
1148.20418,0.44324
1146.14277,0.45252
1144.08136,0.46188
1142.01995,0.47126
1139.95854,0.48086
1137.89714,0.49065
1135.83573,0.50061
1133.77432,0.51094
1131.71291,0.52165
1129.65150,0.53273
1127.59010,0.54441
1125.52869,0.55681
1123.46728,0.57000
1121.40587,0.58439
1119.34447,0.60038
1117.28306,0.61798
1115.22165,0.63725
1113.16024,0.65840
1111.09883,0.68164
1109.03743,0.70688
1106.97602,0.73388
1104.91461,0.76193
1102.85320,0.78924
1100.79179,0.81366
1098.73039,0.83409
1096.66898,0.85094
1094.60757,0.86533
1092.54616,0.87830
1090.48476,0.88991
1088.42335,0.89831
1086.36194,0.90176
1084.30053,0.90097
1082.23912,0.89813
1080.17772,0.89524
1078.11631,0.89388
1076.05490,0.89475
1073.99349,0.89790
1071.93208,0.90342
1069.87068,0.91030
1067.80927,0.91658
1065.74786,0.92115
1063.68645,0.92482
1061.62505,0.92999
1059.56364,0.93890
1057.50223,0.95279
1055.44082,0.97291
1053.37941,1.00125
1051.31801,1.04006
1049.25660,1.09006
1047.19519,1.14699
1045.13378,1.20117
1043.07238,1.24414
1041.01097,1.27507
1038.94956,1.29771
1036.88815,1.31484
1034.82674,1.32819
1032.76534,1.33888
1030.70393,1.34704
1028.64252,1.35415
1026.58111,1.36264
1024.51970,1.37271
1022.45830,1.38236
1020.39689,1.38953
1018.33548,1.39335
1016.27407,1.39432
1014.21267,1.39418
1012.15126,1.39457
1010.08985,1.39568
1008.02844,1.39694
1005.96703,1.39808
1003.90563,1.40029
1001.84422,1.40504
999.78281,1.41184
997.72140,1.41859
995.65999,1.42342
993.59859,1.42729
991.53718,1.43128
989.47577,1.43432
987.41436,1.43603
985.35296,1.43700
983.29155,1.43732
981.23014,1.43597
979.16873,1.43303
977.10732,1.42957
975.04592,1.42529
972.98451,1.41997
970.92310,1.41326
968.86169,1.40501
966.80028,1.39596
964.73888,1.38667
962.67747,1.37865
960.61606,1.37365
958.55465,1.37148
956.49325,1.37168
954.43184,1.37454
952.37043,1.37930
950.30902,1.38542
948.24761,1.39319
946.18621,1.40155
944.12480,1.41006
942.06339,1.41948
940.00198,1.42858
937.94057,1.43593
935.87917,1.44309
933.81776,1.45083
931.75635,1.45721
929.69494,1.46106
927.63354,1.46333
925.57213,1.46663
923.51072,1.47239
921.44931,1.47844
919.38790,1.48207
917.32650,1.48366
915.26509,1.48431
913.20368,1.48437
911.14227,1.48561
909.08086,1.48766
907.01946,1.48906
904.95805,1.49196
902.89664,1.49583
900.83523,1.49763
898.77383,1.49789
896.71242,1.49849
894.65101,1.50016
892.58960,1.50179
890.52819,1.50201
888.46679,1.50231
886.40538,1.50434
884.34397,1.50738
882.28256,1.51063
880.22115,1.51269
878.15975,1.51318
876.09834,1.51477
874.03693,1.51805
871.97552,1.52096
869.91412,1.52158
867.85271,1.52062
865.79130,1.52053
863.72989,1.52081
861.66848,1.52146
859.60708,1.52359
857.54567,1.52601
855.48426,1.52794
853.42285,1.52879
851.36144,1.52840
849.30004,1.52853
847.23863,1.52965
845.17722,1.53036
843.11581,1.52974
841.05441,1.52908
838.99300,1.53062
836.93159,1.53297
834.87018,1.53485
832.80877,1.53592
830.74737,1.53430
828.68596,1.53048
826.62455,1.52617
824.56314,1.52183
822.50173,1.51543
820.44033,1.50679
818.37892,1.50016
816.31751,1.49820
814.25610,1.49867
812.19470,1.49937
810.13329,1.50129
808.07188,1.50417
806.01047,1.50737
803.94906,1.51056
801.88766,1.51378
799.82625,1.51893
797.76484,1.52689
795.70343,1.53565
793.64202,1.54253
791.58062,1.54710
789.51921,1.55178
787.45780,1.55720
785.39639,1.56063
783.33499,1.56254
781.27358,1.56676
779.21217,1.57346
777.15076,1.58074
775.08935,1.58790
773.02795,1.59365
770.96654,1.59759
768.90513,1.59910
766.84372,1.59925
764.78231,1.60108
762.72091,1.60447
760.65950,1.60821
758.59809,1.61178
756.53668,1.61692
754.47528,1.62775
752.41387,1.64720
750.35246,1.67448
748.29105,1.70491
746.22964,1.73173
744.16824,1.74993
742.10683,1.76008
740.04542,1.76735
737.98401,1.77516
735.92260,1.78577
733.86120,1.80153
731.79979,1.81654
729.73838,1.82503
727.67697,1.83168
725.61557,1.84086
723.55416,1.85151
721.49275,1.86319
719.43134,1.87662
717.36993,1.89295
715.30853,1.90876
713.24712,1.92011
711.18571,1.93154
709.12430,1.94688
707.06289,1.96491
705.00149,1.97900
702.94008,1.98702
700.87867,1.99311
698.81726,2.00524
696.75586,2.02751
694.69445,2.04689
692.63304,2.05954
690.57163,2.07723
688.51022,2.09894
686.44882,2.11815
684.38741,2.13820
682.32600,2.16413
680.26459,2.19232
678.20318,2.22313
676.14178,2.26160
674.08037,2.29434
672.01896,2.31702
669.95755,2.35729
667.89615,2.42442
665.83474,2.47185
663.77333,2.50211
661.71192,2.53580
659.65051,2.55611
657.58911,2.57061
655.52770,2.65083
653.46629,2.83150
651.40488,2.98404
649.34347,3.06504
647.28207,3.12264
645.22066,3.17187
643.15925,3.25064
641.09784,3.24503
639.03644,3.21914
636.97503,3.30531
634.91362,3.50714
632.85221,3.30495
630.79080,3.04676
628.72940,2.88397
626.66799,2.75781
624.60658,2.63912
622.54517,2.50282
620.48376,2.37394
618.42236,2.25369
616.36095,2.14839
614.29954,2.05323
612.23813,1.95189
610.17673,1.84320
608.11532,1.74128
606.05391,1.64912
603.99250,1.55741
601.93109,1.46128
599.86969,1.36174
597.80828,1.25893
595.74687,1.15225
593.68546,1.04175
591.62405,0.93004
589.56265,0.82596
587.50124,0.73539
585.43983,0.65859
583.37842,0.59693
581.31702,0.54934
579.25561,0.51290
577.19420,0.48485
575.13279,0.46195
573.07138,0.44318
571.00998,0.42843
568.94857,0.41594
566.88716,0.40470
564.82575,0.39478
562.76434,0.38591
560.70294,0.37756
558.64153,0.36912
556.58012,0.36018
554.51871,0.35117
552.45731,0.34284
550.39590,0.33497
548.33449,0.32697
546.27308,0.31879
544.21167,0.31148
542.15027,0.30572
540.08886,0.30122
538.02745,0.29733
535.96604,0.29367
533.90463,0.29024
531.84323,0.28720
529.78182,0.28499
527.72041,0.28395
525.65900,0.28317
523.59760,0.28188
521.53619,0.28182
519.47478,0.28365
517.41337,0.28497
515.35196,0.28462
513.29056,0.28446
511.22915,0.28516
509.16774,0.28644
507.10633,0.28789
505.04492,0.28883
502.98352,0.28958
500.92211,0.29007
498.86070,0.29032
496.79929,0.29066
494.73789,0.29103
492.67648,0.29126
490.61507,0.29100
488.55366,0.29093
486.49225,0.29170
484.43085,0.29214
482.36944,0.29177
480.30803,0.29168
478.24662,0.29222
476.18521,0.29303
474.12381,0.29390
472.06240,0.29413
470.00099,0.29357
467.93958,0.29309
465.87818,0.29308
463.81677,0.29403
461.75536,0.29612
459.69395,0.29914
457.63254,0.30113
455.57114,0.30096
453.50973,0.30140
451.44832,0.30256
449.38691,0.30361
447.32550,0.30579
445.26410,0.30866
443.20269,0.30988
441.14128,0.30837
439.07987,0.30656
437.01847,0.30620
434.95706,0.30613
432.89565,0.30519
430.83424,0.30332
428.77283,0.30166
426.71143,0.30075
424.65002,0.29987
422.58861,0.29954
420.52720,0.30021
418.46579,0.29616
416.40439,0.28831
414.34298,0.28671
412.28157,0.29158
410.22016,0.29881
408.15876,0.30572
406.09735,0.31243
404.03594,0.31949
401.97453,0.32771
399.91312,0.33822
