3997.06983,1.25031
3995.00842,1.25046
3992.94702,1.25022
3990.88561,1.24988
3988.82420,1.24970
3986.76279,1.24975
3984.70139,1.24988
3982.63998,1.25057
3980.57857,1.25222
3978.51716,1.25350
3976.45575,1.25370
3974.39435,1.25345
3972.33294,1.25301
3970.27153,1.25275
3968.21012,1.25295
3966.14871,1.25319
3964.08731,1.25316
3962.02590,1.25314
3959.96449,1.25371
3957.90308,1.25491
3955.84168,1.25581
3953.78027,1.25619
3951.71886,1.25633
3949.65745,1.25594
3947.59604,1.25443
3945.53464,1.25272
3943.47323,1.25195
3941.41182,1.25146
3939.35041,1.25134
3937.28900,1.25187
3935.22760,1.25320
3933.16619,1.25472
3931.10478,1.25461
3929.04337,1.25367
3926.98197,1.25443
3924.92056,1.25561
3922.85915,1.25505
3920.79774,1.25501
3918.73633,1.25609
3916.67493,1.25579
3914.61352,1.25404
3912.55211,1.25303
3910.49070,1.25391
3908.42929,1.25670
3906.36789,1.26021
3904.30648,1.26196
3902.24507,1.26184
3900.18366,1.26041
3898.12226,1.25781
3896.06085,1.25715
3893.99944,1.25880
3891.93803,1.25911
3889.87662,1.25755
3887.81522,1.25934
3885.75381,1.26289
3883.69240,1.26293
3881.63099,1.26162
3879.56958,1.25904
3877.50818,1.25794
3875.44677,1.26083
3873.38536,1.26319
3871.32395,1.26437
3869.26255,1.26351
3867.20114,1.26168
3865.13973,1.26307
3863.07832,1.26306
3861.01691,1.26055
3858.95551,1.26083
3856.89410,1.26513
3854.83269,1.26966
3852.77128,1.26512
3850.70987,1.25935
3848.64847,1.26042
3846.58706,1.26351
3844.52565,1.26642
3842.46424,1.26915
3840.40284,1.27137
3838.34143,1.27050
3836.28002,1.26670
3834.21861,1.26501
3832.15720,1.26493
3830.09580,1.26437
3828.03439,1.26499
3825.97298,1.26729
3823.91157,1.27092
3821.85016,1.27360
3819.78876,1.27149
3817.72735,1.26975
3815.66594,1.26804
3813.60453,1.26580
3811.54313,1.26710
3809.48172,1.27075
3807.42031,1.27379
3805.35890,1.27584
3803.29749,1.27921
3801.23609,1.27834
3799.17468,1.27413
3797.11327,1.27391
3795.05186,1.27377
3792.99045,1.27325
3790.92905,1.27392
3788.86764,1.27527
3786.80623,1.27751
3784.74482,1.27851
3782.68342,1.27749
3780.62201,1.27704
3778.56060,1.27687
3776.49919,1.27737
3774.43778,1.27978
3772.37638,1.28347
3770.31497,1.28610
3768.25356,1.28572
3766.19215,1.28503
3764.13074,1.28552
3762.06934,1.28770
3760.00793,1.29085
3757.94652,1.29213
3755.88511,1.29353
3753.82371,1.29804
3751.76230,1.30230
3749.70089,1.30116
3747.63948,1.30137
3745.57807,1.30425
3743.51667,1.30215
3741.45526,1.29997
3739.39385,1.30398
3737.33244,1.31222
3735.27103,1.31817
3733.20963,1.31628
3731.14822,1.31406
3729.08681,1.31799
3727.02540,1.32484
3724.96400,1.32917
3722.90259,1.33169
3720.84118,1.33440
3718.77977,1.33731
3716.71836,1.34214
3714.65696,1.35059
3712.59555,1.36173
3710.53414,1.37000
3708.47273,1.37528
3706.41132,1.38267
3704.34992,1.39246
3702.28851,1.40081
3700.22710,1.40432
3698.16569,1.40662
3696.10429,1.40893
3694.04288,1.41005
3691.98147,1.41073
3689.92006,1.40849
3687.85865,1.40150
3685.79725,1.39679
3683.73584,1.39663
3681.67443,1.39868
3679.61302,1.40143
3677.55161,1.40601
3675.49021,1.40934
3673.42880,1.40831
3671.36739,1.40887
3669.30598,1.40701
3667.24458,1.40350
3665.18317,1.40491
3663.12176,1.40882
3661.06035,1.41283
3658.99894,1.41735
3656.93754,1.42064
3654.87613,1.42206
3652.81472,1.42717
3650.75331,1.43596
3648.69190,1.43797
3646.63050,1.43374
3644.56909,1.43493
3642.50768,1.44055
3640.44627,1.44488
3638.38487,1.44638
3636.32346,1.44849
3634.26205,1.45239
3632.20064,1.45831
3630.13923,1.46612
3628.07783,1.46682
3626.01642,1.46183
3623.95501,1.46291
3621.89360,1.46919
3619.83219,1.47579
3617.77079,1.47879
3615.70938,1.48029
3613.64797,1.48169
3611.58656,1.48253
3609.52516,1.48404
3607.46375,1.48410
3605.40234,1.48331
3603.34093,1.48504
3601.27952,1.48809
3599.21812,1.49006
3597.15671,1.49237
3595.09530,1.49581
3593.03389,1.49834
3590.97248,1.50120
3588.91108,1.50532
3586.84967,1.50509
3584.78826,1.50037
3582.72685,1.49786
3580.66545,1.49866
3578.60404,1.50104
3576.54263,1.50271
3574.48122,1.50310
3572.41981,1.50410
3570.35841,1.50866
3568.29700,1.51574
3566.23559,1.51768
3564.17418,1.51524
3562.11277,1.51475
3560.05137,1.51399
3557.98996,1.51151
3555.92855,1.51066
3553.86714,1.51166
3551.80574,1.51155
3549.74433,1.51276
3547.68292,1.51743
3545.62151,1.51898
3543.56010,1.51504
3541.49870,1.51288
3539.43729,1.51452
3537.37588,1.51532
3535.31447,1.51460
3533.25306,1.51663
3531.19166,1.52050
3529.13025,1.52184
3527.06884,1.52117
3525.00743,1.52060
3522.94603,1.51901
3520.88462,1.51676
3518.82321,1.51604
3516.76180,1.51695
3514.70039,1.51788
3512.63899,1.51889
3510.57758,1.52055
3508.51617,1.52148
3506.45476,1.52156
3504.39335,1.52149
3502.33195,1.52101
3500.27054,1.52035
3498.20913,1.51935
3496.14772,1.51817
3494.08632,1.51835
3492.02491,1.52012
3489.96350,1.52117
3487.90209,1.52068
3485.84068,1.52034
3483.77928,1.52096
3481.71787,1.52114
3479.65646,1.52022
3477.59505,1.52011
3475.53364,1.52097
3473.47224,1.52131
3471.41083,1.52098
3469.34942,1.52103
3467.28801,1.52176
3465.22661,1.52213
3463.16520,1.52191
3461.10379,1.52139
3459.04238,1.52106
3456.98097,1.52121
3454.91957,1.52242
3452.85816,1.52404
3450.79675,1.52514
3448.73534,1.52676
3446.67393,1.52783
3444.61253,1.52682
3442.55112,1.52387
3440.48971,1.52000
3438.42830,1.51786
3436.36690,1.51870
3434.30549,1.52065
3432.24408,1.52153
3430.18267,1.52187
3428.12126,1.52280
3426.05986,1.52250
3423.99845,1.52146
3421.93704,1.52169
3419.87563,1.52083
3417.81422,1.51930
3415.75282,1.51957
3413.69141,1.51988
3411.63000,1.51926
3409.56859,1.51954
3407.50719,1.52096
3405.44578,1.52122
3403.38437,1.52015
3401.32296,1.51973
3399.26155,1.52003
3397.20015,1.51990
3395.13874,1.51948
3393.07733,1.51911
3391.01592,1.51918
3388.95451,1.52034
3386.89311,1.52110
3384.83170,1.51976
3382.77029,1.51792
3380.70888,1.51794
3378.64748,1.51906
3376.58607,1.51992
3374.52466,1.52052
3372.46325,1.51995
3370.40184,1.51782
3368.34044,1.51647
3366.27903,1.51738
3364.21762,1.51826
3362.15621,1.51721
3360.09480,1.51605
3358.03340,1.51667
3355.97199,1.51719
3353.91058,1.51660
3351.84917,1.51711
3349.78777,1.51848
3347.72636,1.51894
3345.66495,1.51824
3343.60354,1.51677
3341.54213,1.51533
3339.48073,1.51459
3337.41932,1.51463
3335.35791,1.51486
3333.29650,1.51459
3331.23509,1.51405
3329.17369,1.51382
3327.11228,1.51377
3325.05087,1.51340
3322.98946,1.51317
3320.92806,1.51352
3318.86665,1.51349
3316.80524,1.51306
3314.74383,1.51266
3312.68242,1.51186
3310.62102,1.51125
3308.55961,1.51083
3306.49820,1.50999
3304.43679,1.50976
3302.37538,1.50993
3300.31398,1.50997
3298.25257,1.51076
3296.19116,1.51143
3294.12975,1.51031
3292.06835,1.50825
3290.00694,1.50733
3287.94553,1.50834
3285.88412,1.51072
3283.82271,1.51207
3281.76131,1.51072
3279.69990,1.50862
3277.63849,1.50767
3275.57708,1.50687
3273.51567,1.50530
3271.45427,1.50453
3269.39286,1.50557
3267.33145,1.50677
3265.27004,1.50666
3263.20864,1.50660
3261.14723,1.50703
3259.08582,1.50667
3257.02441,1.50682
3254.96300,1.50752
3252.90160,1.50729
3250.84019,1.50717
3248.77878,1.50681
3246.71737,1.50555
3244.65596,1.50501
3242.59456,1.50531
3240.53315,1.50498
3238.47174,1.50436
3236.41033,1.50447
3234.34893,1.50525
3232.28752,1.50624
3230.22611,1.50638
3228.16470,1.50562
3226.10329,1.50454
3224.04189,1.50251
3221.98048,1.50107
3219.91907,1.50185
3217.85766,1.50285
3215.79625,1.50290
3213.73485,1.50277
3211.67344,1.50186
3209.61203,1.49972
3207.55062,1.49810
3205.48922,1.49772
3203.42781,1.49739
3201.36640,1.49709
3199.30499,1.49748
3197.24358,1.49743
3195.18218,1.49622
3193.12077,1.49575
3191.05936,1.49652
3188.99795,1.49696
3186.93654,1.49647
3184.87514,1.49513
3182.81373,1.49382
3180.75232,1.49399
3178.69091,1.49496
3176.62951,1.49501
3174.56810,1.49384
3172.50669,1.49240
3170.44528,1.49173
3168.38387,1.49144
3166.32247,1.49077
3164.26106,1.49030
3162.19965,1.49068
3160.13824,1.49114
3158.07683,1.49060
3156.01543,1.48929
3153.95402,1.48871
3151.89261,1.48994
3149.83120,1.49166
3147.76980,1.49170
3145.70839,1.49028
3143.64698,1.48913
3141.58557,1.48839
3139.52416,1.48688
3137.46276,1.48475
3135.40135,1.48347
3133.33994,1.48367
3131.27853,1.48482
3129.21713,1.48571
3127.15572,1.48545
3125.09431,1.48453
3123.03290,1.48379
3120.97149,1.48296
3118.91009,1.48178
3116.84868,1.48079
3114.78727,1.48073
3112.72586,1.48103
3110.66445,1.47987
3108.60305,1.47806
3106.54164,1.47759
3104.48023,1.47799
3102.41882,1.47830
3100.35742,1.47803
3098.29601,1.47713
3096.23460,1.47642
3094.17319,1.47592
3092.11178,1.47513
3090.05038,1.47449
3087.98897,1.47447
3085.92756,1.47482
3083.86615,1.47485
3081.80474,1.47419
3079.74334,1.47309
3077.68193,1.47162
3075.62052,1.47048
3073.55911,1.47054
3071.49771,1.47064
3069.43630,1.46977
3067.37489,1.46871
3065.31348,1.46803
3063.25207,1.46803
3061.19067,1.46855
3059.12926,1.46846
3057.06785,1.46681
3055.00644,1.46451
3052.94503,1.46311
3050.88363,1.46315
3048.82222,1.46391
3046.76081,1.46330
3044.69940,1.46128
3042.63800,1.45987
3040.57659,1.45920
3038.51518,1.45858
3036.45377,1.45829
3034.39236,1.45818
3032.33096,1.45804
3030.26955,1.45824
3028.20814,1.45802
3026.14673,1.45647
3024.08532,1.45454
3022.02392,1.45375
3019.96251,1.45380
3017.90110,1.45316
3015.83969,1.45211
3013.77829,1.45155
3011.71688,1.45078
3009.65547,1.44960
3007.59406,1.44844
3005.53265,1.44762
3003.47125,1.44731
3001.40984,1.44730
2999.34843,1.44748
2997.28702,1.44760
2995.22561,1.44727
2993.16421,1.44653
2991.10280,1.44591
2989.04139,1.44533
2986.97998,1.44419
2984.91858,1.44270
2982.85717,1.44144
2980.79576,1.44060
2978.73435,1.44053
2976.67294,1.44107
2974.61154,1.44116
2972.55013,1.44076
2970.48872,1.44033
2968.42731,1.43936
2966.36590,1.43701
2964.30450,1.43432
2962.24309,1.43286
2960.18168,1.43216
2958.12027,1.43128
2956.05887,1.43031
2953.99746,1.43021
2951.93605,1.43077
2949.87464,1.43080
2947.81323,1.43037
2945.75183,1.42975
2943.69042,1.42920
2941.62901,1.42872
2939.56760,1.42820
2937.50619,1.42817
2935.44479,1.42814
2933.38338,1.42725
2931.32197,1.42595
2929.26056,1.42444
2927.19916,1.42258
2925.13775,1.42109
2923.07634,1.42069
2921.01493,1.42111
2918.95352,1.42134
2916.89212,1.42079
2914.83071,1.42051
2912.76930,1.42074
2910.70789,1.42016
2908.64648,1.41919
2906.58508,1.41827
2904.52367,1.41701
2902.46226,1.41605
2900.40085,1.41575
2898.33945,1.41542
2896.27804,1.41497
2894.21663,1.41504
2892.15522,1.41540
2890.09381,1.41531
2888.03241,1.41430
2885.97100,1.41274
2883.90959,1.41161
2881.84818,1.41081
2879.78677,1.40963
2877.72537,1.40804
2875.66396,1.40696
2873.60255,1.40698
2871.54114,1.40750
2869.47974,1.40752
2867.41833,1.40669
2865.35692,1.40548
2863.29551,1.40406
2861.23410,1.40214
2859.17270,1.40009
2857.11129,1.39872
2855.04988,1.39798
2852.98847,1.39743
2850.92706,1.39692
2848.86566,1.39611
2846.80425,1.39532
2844.74284,1.39502
2842.68143,1.39448
2840.62003,1.39337
2838.55862,1.39232
2836.49721,1.39113
2834.43580,1.38971
2832.37439,1.38857
2830.31299,1.38749
2828.25158,1.38629
2826.19017,1.38502
2824.12876,1.38384
2822.06735,1.38266
2820.00595,1.38106
2817.94454,1.37950
2815.88313,1.37853
2813.82172,1.37802
2811.76032,1.37803
2809.69891,1.37789
2807.63750,1.37673
2805.57609,1.37506
2803.51468,1.37389
2801.45328,1.37295
2799.39187,1.37121
2797.33046,1.36950
2795.26905,1.36860
2793.20764,1.36757
2791.14624,1.36627
2789.08483,1.36529
2787.02342,1.36485
2784.96201,1.36452
2782.90061,1.36348
2780.83920,1.36192
2778.77779,1.36066
2776.71638,1.35982
2774.65497,1.35877
2772.59357,1.35735
2770.53216,1.35601
2768.47075,1.35515
2766.40934,1.35464
2764.34793,1.35375
2762.28653,1.35250
2760.22512,1.35144
2758.16371,1.35032
2756.10230,1.34911
2754.04090,1.34821
2751.97949,1.34734
2749.91808,1.34598
2747.85667,1.34462
2745.79526,1.34368
2743.73386,1.34258
2741.67245,1.34051
2739.61104,1.33777
2737.54963,1.33616
2735.48822,1.33599
2733.42682,1.33571
2731.36541,1.33490
2729.30400,1.33430
2727.24259,1.33391
2725.18119,1.33327
2723.11978,1.33222
2721.05837,1.33112
2718.99696,1.33010
2716.93555,1.32891
2714.87415,1.32726
2712.81274,1.32534
2710.75133,1.32386
2708.68992,1.32290
2706.62851,1.32215
2704.56711,1.32159
2702.50570,1.32090
2700.44429,1.31985
2698.38288,1.31879
2696.32148,1.31778
2694.26007,1.31681
2692.19866,1.31574
2690.13725,1.31421
2688.07584,1.31291
2686.01444,1.31218
2683.95303,1.31111
2681.89162,1.30963
2679.83021,1.30846
2677.76880,1.30739
2675.70740,1.30603
2673.64599,1.30482
2671.58458,1.30388
2669.52317,1.30275
2667.46177,1.30139
2665.40036,1.30015
2663.33895,1.29921
2661.27754,1.29855
2659.21613,1.29785
2657.15473,1.29689
2655.09332,1.29599
2653.03191,1.29516
2650.97050,1.29395
2648.90909,1.29268
2646.84769,1.29194
2644.78628,1.29121
2642.72487,1.29006
2640.66346,1.28893
2638.60206,1.28806
2636.54065,1.28722
2634.47924,1.28643
2632.41783,1.28597
2630.35642,1.28554
2628.29502,1.28509
2626.23361,1.28453
2624.17220,1.28335
2622.11079,1.28231
2620.04938,1.28195
2617.98798,1.28104
2615.92657,1.27942
2613.86516,1.27840
2611.80375,1.27789
2609.74235,1.27731
2607.68094,1.27685
2605.61953,1.27590
2603.55812,1.27400
2601.49671,1.27199
2599.43531,1.27057
2597.37390,1.26919
2595.31249,1.26763
2593.25108,1.26677
2591.18967,1.26655
2589.12827,1.26606
2587.06686,1.26504
2585.00545,1.26372
2582.94404,1.26262
2580.88264,1.26218
2578.82123,1.26177
2576.75982,1.26067
2574.69841,1.25939
2572.63700,1.25848
2570.57560,1.25786
2568.51419,1.25721
2566.45278,1.25613
2564.39137,1.25470
2562.32996,1.25353
2560.26856,1.25240
2558.20715,1.25101
2556.14574,1.24996
2554.08433,1.24937
2552.02293,1.24850
2549.96152,1.24725
2547.90011,1.24592
2545.83870,1.24441
2543.77729,1.24313
2541.71589,1.24241
2539.65448,1.24140
2537.59307,1.23992
2535.53166,1.23885
2533.47025,1.23795
2531.40885,1.23669
2529.34744,1.23549
2527.28603,1.23437
2525.22462,1.23323
2523.16322,1.23223
2521.10181,1.23104
2519.04040,1.22940
2516.97899,1.22790
2514.91758,1.22679
2512.85618,1.22574
2510.79477,1.22473
2508.73336,1.22362
2506.67195,1.22240
2504.61054,1.22143
2502.54914,1.22064
2500.48773,1.21993
2498.42632,1.21897
2496.36491,1.21749
2494.30351,1.21599
2492.24210,1.21484
2490.18069,1.21388
2488.11928,1.21287
2486.05787,1.21186
2483.99647,1.21099
2481.93506,1.21020
2479.87365,1.20937
2477.81224,1.20857
2475.75083,1.20769
2473.68943,1.20664
2471.62802,1.20571
2469.56661,1.20485
2467.50520,1.20370
2465.44380,1.20248
2463.38239,1.20161
2461.32098,1.20088
2459.25957,1.19999
2457.19816,1.19897
2455.13676,1.19802
2453.07535,1.19717
2451.01394,1.19656
2448.95253,1.19603
2446.89112,1.19495
2444.82972,1.19373
2442.76831,1.19298
2440.70690,1.19214
2438.64549,1.19118
2436.58409,1.19028
2434.52268,1.18893
2432.46127,1.18705
2430.39986,1.18558
2428.33845,1.18495
2426.27705,1.18434
2424.21564,1.18320
2422.15423,1.18216
2420.09282,1.18174
2418.03141,1.18136
2415.97001,1.18031
2413.90860,1.17874
2411.84719,1.17724
2409.78578,1.17608
2407.72438,1.17521
2405.66297,1.17454
2403.60156,1.17368
2401.54015,1.17264
2399.47874,1.17174
2397.41734,1.17096
2395.35593,1.17018
2393.29452,1.16941
2391.23311,1.16849
2389.17170,1.16730
2387.11030,1.16614
2385.04889,1.16538
2382.98748,1.16510
2380.92607,1.16533
2378.86467,1.16558
2376.80326,1.16491
2374.74185,1.16339
2372.68044,1.16157
2370.61903,1.15900
2368.55763,1.15547
2366.49622,1.15213
2364.43481,1.15003
2362.37340,1.14917
2360.31199,1.14788
2358.25059,1.14566
2356.18918,1.14462
2354.12777,1.14488
2352.06636,1.14494
2350.00496,1.14550
2347.94355,1.14724
2345.88214,1.14778
2343.82073,1.14466
2341.75932,1.14055
2339.69792,1.13804
2337.63651,1.13646
2335.57510,1.13509
2333.51369,1.13407
2331.45228,1.13359
2329.39088,1.13288
2327.32947,1.13156
2325.26806,1.13052
2323.20665,1.13000
2321.14525,1.12925
2319.08384,1.12807
2317.02243,1.12680
2314.96102,1.12581
2312.89961,1.12528
2310.83821,1.12496
2308.77680,1.12481
2306.71539,1.12465
2304.65398,1.12383
2302.59257,1.12249
2300.53117,1.12113
2298.46976,1.11993
2296.40835,1.11891
2294.34694,1.11786
2292.28554,1.11659
2290.22413,1.11519
2288.16272,1.11404
2286.10131,1.11332
2284.03990,1.11267
2281.97850,1.11187
2279.91709,1.11099
2277.85568,1.10993
2275.79427,1.10872
2273.73286,1.10757
2271.67146,1.10636
2269.61005,1.10516
2267.54864,1.10443
2265.48723,1.10381
2263.42583,1.10270
2261.36442,1.10134
2259.30301,1.10015
2257.24160,1.09932
2255.18019,1.09869
2253.11879,1.09801
2251.05738,1.09737
2248.99597,1.09677
2246.93456,1.09610
2244.87315,1.09528
2242.81175,1.09417
2240.75034,1.09292
2238.68893,1.09175
2236.62752,1.09066
2234.56612,1.08961
2232.50471,1.08854
2230.44330,1.08760
2228.38189,1.08690
2226.32048,1.08636
2224.25908,1.08578
2222.19767,1.08486
2220.13626,1.08391
2218.07485,1.08310
2216.01344,1.08213
2213.95204,1.08111
2211.89063,1.07991
2209.82922,1.07859
2207.76781,1.07747
2205.70641,1.07652
2203.64500,1.07569
2201.58359,1.07495
2199.52218,1.07408
2197.46077,1.07321
2195.39937,1.07273
2193.33796,1.07221
2191.27655,1.07103
2189.21514,1.06966
2187.15373,1.06856
2185.09233,1.06728
2183.03092,1.06603
2180.96951,1.06520
2178.90810,1.06443
2176.84670,1.06350
2174.78529,1.06255
2172.72388,1.06173
2170.66247,1.06108
2168.60106,1.06037
2166.53966,1.05930
2164.47825,1.05827
2162.41684,1.05768
2160.35543,1.05701
2158.29402,1.05584
2156.23262,1.05442
2154.17121,1.05303
2152.10980,1.05187
2150.04839,1.05080
2147.98699,1.05006
2145.92558,1.04967
2143.86417,1.04886
2141.80276,1.04758
2139.74135,1.04647
2137.67995,1.04560
2135.61854,1.04486
2133.55713,1.04409
2131.49572,1.04309
2129.43431,1.04201
2127.37291,1.04074
2125.31150,1.03934
2123.25009,1.03832
2121.18868,1.03762
2119.12728,1.03679
2117.06587,1.03582
2115.00446,1.03477
2112.94305,1.03352
2110.88164,1.03225
2108.82024,1.03112
2106.75883,1.02991
2104.69742,1.02866
2102.63601,1.02751
2100.57461,1.02621
2098.51320,1.02470
2096.45179,1.02307
2094.39038,1.02135
2092.32897,1.01980
2090.26757,1.01852
2088.20616,1.01700
2086.14475,1.01500
2084.08334,1.01297
2082.02193,1.01135
2079.96053,1.00982
2077.89912,1.00797
2075.83771,1.00592
2073.77630,1.00395
2071.71490,1.00223
2069.65349,1.00078
2067.59208,0.99925
2065.53067,0.99722
2063.46926,0.99488
2061.40786,0.99294
2059.34645,0.99135
2057.28504,0.98958
2055.22363,0.98749
2053.16222,0.98534
2051.10082,0.98343
2049.03941,0.98171
2046.97800,0.97982
2044.91659,0.97784
2042.85519,0.97611
2040.79378,0.97435
2038.73237,0.97240
2036.67096,0.97051
2034.60955,0.96862
2032.54815,0.96665
2030.48674,0.96472
2028.42533,0.96293
2026.36392,0.96110
2024.30251,0.95918
2022.24111,0.95730
2020.17970,0.95579
2018.11829,0.95424
2016.05688,0.95182
2013.99548,0.94926
2011.93407,0.94733
2009.87266,0.94551
2007.81125,0.94347
2005.74984,0.94124
2003.68844,0.93922
2001.62703,0.93760
1999.56562,0.93589
1997.50421,0.93385
1995.44280,0.93215
1993.38140,0.93091
1991.31999,0.92879
1989.25858,0.92591
1987.19717,0.92341
1985.13577,0.92116
1983.07436,0.91898
1981.01295,0.91684
1978.95154,0.91487
1976.89013,0.91309
1974.82873,0.91135
1972.76732,0.90950
1970.70591,0.90797
1968.64450,0.90688
1966.58309,0.90488
1964.52169,0.90202
1962.46028,0.89943
1960.39887,0.89703
1958.33746,0.89491
1956.27606,0.89321
1954.21465,0.89127
1952.15324,0.88915
1950.09183,0.88746
1948.03042,0.88636
1945.96902,0.88582
1943.90761,0.88509
1941.84620,0.88216
1939.78479,0.87821
1937.72338,0.87577
1935.66198,0.87413
1933.60057,0.87229
1931.53916,0.87019
1929.47775,0.86805
1927.41635,0.86643
1925.35494,0.86597
1923.29353,0.86537
1921.23212,0.86369
1919.17071,0.86212
1917.10931,0.85948
1915.04790,0.85612
1912.98649,0.85446
1910.92508,0.85382
1908.86367,0.85218
1906.80227,0.84957
1904.74086,0.84730
1902.67945,0.84541
1900.61804,0.84360
1898.55664,0.84216
1896.49523,0.84102
1894.43382,0.83953
1892.37241,0.83831
1890.31100,0.83733
1888.24960,0.83487
1886.18819,0.83224
1884.12678,0.83048
1882.06537,0.82873
1880.00396,0.82692
1877.94256,0.82512
1875.88115,0.82346
1873.81974,0.82269
1871.75833,0.82408
1869.69693,0.82550
1867.63552,0.82227
1865.57411,0.81712
1863.51270,0.81448
1861.45129,0.81331
1859.38989,0.81208
1857.32848,0.81055
1855.26707,0.80887
1853.20566,0.80729
1851.14425,0.80646
1849.08285,0.80702
1847.02144,0.80867
1844.96003,0.80875
1842.89862,0.80429
1840.83722,0.80020
1838.77581,0.79918
1836.71440,0.79830
1834.65299,0.79725
1832.59158,0.79841
1830.53018,0.79959
1828.46877,0.79727
1826.40736,0.79476
1824.34595,0.79237
1822.28454,0.78948
1820.22314,0.78827
1818.16173,0.78769
1816.10032,0.78645
1814.03891,0.78588
1811.97751,0.78607
1809.91610,0.78480
1807.85469,0.78262
1805.79328,0.78179
1803.73187,0.78268
1801.67047,0.78345
1799.60906,0.78200
1797.54765,0.78021
1795.48624,0.78081
1793.42483,0.78214
1791.36343,0.77932
1789.30202,0.77494
1787.24061,0.77401
1785.17920,0.77428
1783.11780,0.77380
1781.05639,0.77327
1778.99498,0.77232
1776.93357,0.77267
1774.87216,0.77560
1772.81076,0.77721
1770.74935,0.77379
1768.68794,0.76971
1766.62653,0.76717
1764.56512,0.76731
1762.50372,0.76876
1760.44231,0.76806
1758.38090,0.76730
1756.31949,0.76656
1754.25809,0.76666
1752.19668,0.76987
1750.13527,0.77191
1748.07386,0.76962
1746.01245,0.76727
1743.95105,0.76661
1741.88964,0.76660
1739.82823,0.76561
1737.76682,0.76569
1735.70541,0.76933
1733.64401,0.76972
1731.58260,0.76488
1729.52119,0.76255
1727.45978,0.76201
1725.39838,0.76318
1723.33697,0.76567
1721.27556,0.76997
1719.21415,0.77714
1717.15274,0.78125
1715.09134,0.77834
1713.02993,0.77689
1710.96852,0.77949
1708.90711,0.78488
1706.84570,0.79118
1704.78430,0.79618
1702.72289,0.80198
1700.66148,0.80947
1698.60007,0.81384
1696.53867,0.81628
1694.47726,0.81814
1692.41585,0.82250
1690.35444,0.83079
1688.29303,0.84030
1686.23163,0.85097
1684.17022,0.86042
1682.10881,0.86360
1680.04740,0.86824
1677.98599,0.87616
1675.92459,0.88522
1673.86318,0.89344
1671.80177,0.90204
1669.74036,0.91090
1667.67896,0.91641
1665.61755,0.92265
1663.55614,0.93138
1661.49473,0.93825
1659.43332,0.94411
1657.37192,0.95289
1655.31051,0.96456
1653.24910,0.97319
1651.18769,0.97451
1649.12628,0.98048
1647.06488,0.98740
1645.00347,0.98756
1642.94206,0.98820
1640.88065,0.99211
1638.81925,0.99721
1636.75784,0.99891
1634.69643,0.99043
1632.63502,0.98291
1630.57361,0.98037
1628.51221,0.97672
1626.45080,0.97153
1624.38939,0.96666
1622.32798,0.96020
1620.26657,0.95610
1618.20517,0.95532
1616.14376,0.95156
1614.08235,0.94760
1612.02094,0.94826
1609.95954,0.95103
1607.89813,0.95383
1605.83672,0.95696
1603.77531,0.96159
1601.71390,0.96812
1599.65250,0.97668
1597.59109,0.98825
1595.52968,1.00365
1593.46827,1.02284
1591.40686,1.04439
1589.34546,1.06549
1587.28405,1.08373
1585.22264,1.09969
1583.16123,1.11546
1581.09983,1.13253
1579.03842,1.15154
1576.97701,1.17425
1574.91560,1.19723
1572.85419,1.21547
1570.79279,1.23524
1568.73138,1.25682
1566.66997,1.27467
1564.60856,1.29075
1562.54715,1.30614
1560.48575,1.32232
1558.42434,1.33732
1556.36293,1.34247
1554.30152,1.34627
1552.24012,1.34989
1550.17871,1.35069
1548.11730,1.34864
1546.05589,1.34836
1543.99448,1.34989
1541.93308,1.34884
1539.87167,1.34370
1537.81026,1.34132
1535.74885,1.34573
1533.68744,1.35303
1531.62604,1.36031
1529.56463,1.36920
1527.50322,1.37997
1525.44181,1.38877
1523.38041,1.39521
1521.31900,1.39871
1519.25759,1.39877
1517.19618,1.39840
1515.13477,1.39681
1513.07337,1.39724
1511.01196,1.40271
1508.95055,1.41019
1506.88914,1.40572
1504.82773,1.39078
1502.76633,1.38608
1500.70492,1.38562
1498.64351,1.38234
1496.58210,1.37315
1494.52070,1.36370
1492.45929,1.35975
1490.39788,1.35595
1488.33647,1.34446
1486.27506,1.33006
1484.21366,1.31909
1482.15225,1.30954
1480.09084,1.29885
1478.02943,1.28861
1475.96802,1.27897
1473.90662,1.26603
1471.84521,1.24657
1469.78380,1.23030
1467.72239,1.22028
1465.66099,1.20849
1463.59958,1.19339
1461.53817,1.18349
1459.47676,1.17799
1457.41535,1.16427
1455.35395,1.14426
1453.29254,1.13421
1451.23113,1.12978
1449.16972,1.12774
1447.10831,1.12769
1445.04691,1.13041
1442.98550,1.13751
1440.92409,1.14869
1438.86268,1.16350
1436.80128,1.18310
1434.73987,1.20362
1432.67846,1.22288
1430.61705,1.24399
1428.55564,1.26488
1426.49424,1.28267
1424.43283,1.29721
1422.37142,1.30704
1420.31001,1.31079
1418.24860,1.30523
1416.18720,1.29585
1414.12579,1.29037
1412.06438,1.28690
1410.00297,1.28362
1407.94157,1.28216
1405.88016,1.28330
1403.81875,1.28470
1401.75734,1.28705
1399.69593,1.29153
1397.63453,1.29595
1395.57312,1.29951
1393.51171,1.30206
1391.45030,1.30457
1389.38889,1.30819
1387.32749,1.30949
1385.26608,1.30557
1383.20467,1.29980
1381.14326,1.29322
1379.08186,1.28420
1377.02045,1.27311
1374.95904,1.25962
1372.89763,1.24297
1370.83622,1.22688
1368.77482,1.21176
1366.71341,1.19733
1364.65200,1.18527
1362.59059,1.17223
1360.52918,1.15657
1358.46778,1.14147
1356.40637,1.12663
1354.34496,1.11031
1352.28355,1.09264
1350.22215,1.07372
1348.16074,1.05355
1346.09933,1.03342
1344.03792,1.01516
1341.97651,0.99960
1339.91511,0.98436
1337.85370,0.96779
1335.79229,0.95269
1333.73088,0.93947
1331.66947,0.92508
1329.60807,0.90746
1327.54666,0.88731
1325.48525,0.86683
1323.42384,0.84757
1321.36244,0.83013
1319.30103,0.81332
1317.23962,0.79583
1315.17821,0.77774
1313.11680,0.75890
1311.05540,0.73970
1308.99399,0.72142
1306.93258,0.70454
1304.87117,0.68949
1302.80976,0.67659
1300.74836,0.66544
1298.68695,0.65579
1296.62554,0.64753
1294.56413,0.64037
1292.50273,0.63392
1290.44132,0.62775
1288.37991,0.62137
1286.31850,0.61483
1284.25709,0.60866
1282.19569,0.60297
1280.13428,0.59761
1278.07287,0.59274
1276.01146,0.58882
1273.95005,0.58599
1271.88865,0.58389
1269.82724,0.58198
1267.76583,0.58036
1265.70442,0.57944
1263.64302,0.57913
1261.58161,0.57880
1259.52020,0.57792
1257.45879,0.57673
1255.39738,0.57586
1253.33598,0.57545
1251.27457,0.57521
1249.21316,0.57509
1247.15175,0.57528
1245.09034,0.57573
1243.02894,0.57608
1240.96753,0.57626
1238.90612,0.57650
1236.84471,0.57700
1234.78331,0.57767
1232.72190,0.57818
1230.66049,0.57846
1228.59908,0.57889
1226.53767,0.57955
1224.47627,0.58011
1222.41486,0.58051
1220.35345,0.58105
1218.29204,0.58185
1216.23063,0.58272
1214.16923,0.58354
1212.10782,0.58438
1210.04641,0.58545
1207.98500,0.58678
1205.92360,0.58812
1203.86219,0.58928
1201.80078,0.59045
1199.73937,0.59187
1197.67796,0.59361
1195.61656,0.59565
1193.55515,0.59778
1191.49374,0.60009
1189.43233,0.60292
1187.37092,0.60617
1185.30952,0.60954
1183.24811,0.61308
1181.18670,0.61704
1179.12529,0.62148
1177.06389,0.62625
1175.00248,0.63116
1172.94107,0.63633
1170.87966,0.64217
1168.81825,0.64867
1166.75685,0.65526
1164.69544,0.66172
1162.63403,0.66853
1160.57262,0.67603
1158.51121,0.68407
1156.44981,0.69227
1154.38840,0.70058
1152.32699,0.70935
1150.26558,0.71852
1148.20418,0.72771
1146.14277,0.73684
1144.08136,0.74629
1142.01995,0.75627
1139.95854,0.76657
1137.89714,0.77674
1135.83573,0.78689
1133.77432,0.79746
1131.71291,0.80851
1129.65150,0.81998
1127.59010,0.83177
1125.52869,0.84398
1123.46728,0.85736
1121.40587,0.87234
1119.34447,0.88844
1117.28306,0.90576
1115.22165,0.92487
1113.16024,0.94601
1111.09883,0.96915
1109.03743,0.99382
1106.97602,1.01956
1104.91461,1.04585
1102.85320,1.07152
1100.79179,1.09490
1098.73039,1.11457
1096.66898,1.13050
1094.60757,1.14387
1092.54616,1.15521
1090.48476,1.16464
1088.42335,1.17204
1086.36194,1.17604
1084.30053,1.17634
1082.23912,1.17459
1080.17772,1.17233
1078.11631,1.17083
1076.05490,1.17148
1073.99349,1.17491
1071.93208,1.18031
1069.87068,1.18622
1067.80927,1.19164
1065.74786,1.19592
1063.68645,1.19927
1061.62505,1.20368
1059.56364,1.21158
1057.50223,1.22426
1055.44082,1.24249
1053.37941,1.26754
1051.31801,1.30092
1049.25660,1.34264
1047.19519,1.38785
1045.13378,1.42818
1043.07238,1.45878
1041.01097,1.48034
1038.94956,1.49599
1036.88815,1.50805
1034.82674,1.51702
1032.76534,1.52380
1030.70393,1.52921
1028.64252,1.53346
1026.58111,1.53814
1024.51970,1.54451
1022.45830,1.55125
1020.39689,1.55609
1018.33548,1.55872
1016.27407,1.56019
1014.21267,1.56111
1012.15126,1.56205
1010.08985,1.56381
1008.02844,1.56494
1005.96703,1.56432
1003.90563,1.56513
1001.84422,1.56874
999.78281,1.57289
997.72140,1.57645
995.65999,1.57991
993.59859,1.58342
991.53718,1.58544
989.47577,1.58581
987.41436,1.58741
985.35296,1.58967
983.29155,1.58957
981.23014,1.58902
979.16873,1.59001
977.10732,1.59072
975.04592,1.58921
972.98451,1.58587
970.92310,1.58191
968.86169,1.57748
966.80028,1.57310
964.73888,1.56890
962.67747,1.56494
960.61606,1.56161
958.55465,1.55952
956.49325,1.55953
954.43184,1.56152
952.37043,1.56566
950.30902,1.57171
948.24761,1.57807
946.18621,1.58460
944.12480,1.59147
942.06339,1.59756
940.00198,1.60234
937.94057,1.60615
935.87917,1.61014
933.81776,1.61499
931.75635,1.61897
929.69494,1.62143
927.63354,1.62411
925.57213,1.62594
923.51072,1.62603
921.44931,1.62744
919.38790,1.63095
917.32650,1.63362
915.26509,1.63427
913.20368,1.63509
911.14227,1.63712
909.08086,1.63867
907.01946,1.63996
904.95805,1.64225
902.89664,1.64521
900.83523,1.64829
898.77383,1.65079
896.71242,1.65235
894.65101,1.65356
892.58960,1.65448
890.52819,1.65456
888.46679,1.65625
886.40538,1.66097
884.34397,1.66513
882.28256,1.66710
880.22115,1.66722
878.15975,1.66583
876.09834,1.66531
874.03693,1.66704
871.97552,1.66950
869.91412,1.67022
867.85271,1.66821
865.79130,1.66680
863.72989,1.67028
861.66848,1.67677
859.60708,1.68128
857.54567,1.68289
855.48426,1.68319
853.42285,1.68305
851.36144,1.68302
849.30004,1.68382
847.23863,1.68565
845.17722,1.68674
843.11581,1.68652
841.05441,1.68574
838.99300,1.68491
836.93159,1.68743
834.87018,1.69316
832.80877,1.69599
830.74737,1.69624
828.68596,1.69671
826.62455,1.69515
824.56314,1.69280
822.50173,1.69028
820.44033,1.68846
818.37892,1.68963
816.31751,1.69096
814.25610,1.69284
812.19470,1.69559
810.13329,1.69592
808.07188,1.69716
806.01047,1.70240
803.94906,1.70634
801.88766,1.70799
799.82625,1.71344
797.76484,1.72171
795.70343,1.72715
793.64202,1.73164
791.58062,1.73861
789.51921,1.74692
787.45780,1.75443
785.39639,1.75876
783.33499,1.76039
781.27358,1.76337
779.21217,1.77036
777.15076,1.78068
775.08935,1.79028
773.02795,1.79567
770.96654,1.79972
768.90513,1.80558
766.84372,1.80915
764.78231,1.80828
762.72091,1.80726
760.65950,1.80816
758.59809,1.81198
756.53668,1.81914
754.47528,1.83029
752.41387,1.84873
750.35246,1.86960
748.29105,1.88733
746.22964,1.90188
744.16824,1.91500
742.10683,1.92905
740.04542,1.93941
737.98401,1.94761
735.92260,1.96054
733.86120,1.97405
731.79979,1.98265
729.73838,1.98907
727.67697,1.99672
725.61557,2.00816
723.55416,2.02388
721.49275,2.04144
719.43134,2.05550
717.36993,2.06306
715.30853,2.06862
713.24712,2.07775
711.18571,2.09066
709.12430,2.10415
707.06289,2.11468
705.00149,2.12156
702.94008,2.13405
700.87867,2.14916
698.81726,2.15807
696.75586,2.17284
694.69445,2.19828
692.63304,2.22530
690.57163,2.25321
688.51022,2.28689
686.44882,2.31431
684.38741,2.32723
682.32600,2.34778
680.26459,2.38247
678.20318,2.40746
676.14178,2.42647
674.08037,2.44858
672.01896,2.47334
669.95755,2.51442
667.89615,2.55452
665.83474,2.58869
663.77333,2.64374
661.71192,2.72701
659.65051,2.83255
657.58911,2.90395
655.52770,2.94748
653.46629,3.02047
651.40488,3.05860
649.34347,3.05516
647.28207,3.04260
645.22066,3.07313
643.15925,3.20358
641.09784,3.30455
639.03644,3.22554
636.97503,3.11981
634.91362,3.14715
632.85221,3.25904
630.79080,3.21389
628.72940,3.07414
626.66799,3.01409
624.60658,2.88623
622.54517,2.68891
620.48376,2.53284
618.42236,2.40984
616.36095,2.29939
614.29954,2.19251
612.23813,2.09659
610.17673,2.01034
608.11532,1.91894
606.05391,1.82020
603.99250,1.72326
601.93109,1.62764
599.86969,1.52657
597.80828,1.41991
595.74687,1.31209
593.68546,1.20497
591.62405,1.09884
589.56265,0.99924
587.50124,0.91239
585.43983,0.84021
583.37842,0.78273
581.31702,0.73675
579.25561,0.69963
577.19420,0.67011
575.13279,0.64532
573.07138,0.62318
571.00998,0.60369
568.94857,0.58700
566.88716,0.57280
564.82575,0.56038
562.76434,0.54908
560.70294,0.53851
558.64153,0.52874
556.58012,0.51934
554.51871,0.51033
552.45731,0.50233
550.39590,0.49482
548.33449,0.48739
546.27308,0.48033
544.21167,0.47401
542.15027,0.46898
540.08886,0.46512
538.02745,0.46166
535.96604,0.45848
533.90463,0.45570
531.84323,0.45319
529.78182,0.45126
527.72041,0.45010
525.65900,0.44896
523.59760,0.44788
521.53619,0.44840
519.47478,0.44996
517.41337,0.45018
515.35196,0.44881
513.29056,0.44780
511.22915,0.44785
509.16774,0.44901
507.10633,0.45064
505.04492,0.45174
502.98352,0.45263
500.92211,0.45321
498.86070,0.45366
496.79929,0.45411
494.73789,0.45446
492.67648,0.45530
490.61507,0.45603
488.55366,0.45615
486.49225,0.45657
484.43085,0.45714
482.36944,0.45727
480.30803,0.45787
478.24662,0.45922
476.18521,0.46040
474.12381,0.46156
472.06240,0.46219
470.00099,0.46191
467.93958,0.46211
465.87818,0.46269
463.81677,0.46337
461.75536,0.46441
459.69395,0.46613
457.63254,0.46707
455.57114,0.46560
453.50973,0.46326
451.44832,0.46035
449.38691,0.45757
447.32550,0.45584
445.26410,0.45418
443.20269,0.45178
441.14128,0.44839
439.07987,0.44540
437.01847,0.44387
434.95706,0.44253
432.89565,0.44017
430.83424,0.43736
428.77283,0.43600
426.71143,0.43596
424.65002,0.43477
422.58861,0.43385
420.52720,0.43589
418.46579,0.43499
416.40439,0.43081
414.34298,0.43282
412.28157,0.44045
410.22016,0.44971
408.15876,0.45835
406.09735,0.46704
404.03594,0.47767
401.97453,0.49017
399.91312,0.50361
